BVP_mean,BVP_std,EDA_phasic_mean,EDA_phasic_min,EDA_smna_min,EDA_tonic_mean,Resp_mean,Resp_std,TEMP_mean,TEMP_std,TEMP_slope,BVP_peak_freq
-0.1816732617297902,107.648359232624,1.8242890005698504,0.3679770831591029,5.2296580284144673e-08,1.2321641222809565,0.1481839773616847,2.9356168122316832,35.817090909090865,0.012673914122067,-0.0001690598020873,0.1356698699830412
-0.8301470588235291,118.74208943778429,2.1091462266161902,0.5391497246181243,3.096902286001704e-08,0.3776152040104432,0.0375448409449639,2.843123179252524,35.79756756756755,0.0299012252668947,-0.0007886977886977,0.0950226244343891
0.9396834369700432,42.19003939297985,0.1528278212523522,0.0069503635601221,4.7256023584507136e-08,1.7276955866032333,-0.0218624893866171,1.7003326185446763,35.712909090909065,0.0276124298277377,-0.0007169938913058,0.07687959299039
0.1074038461538474,41.60687173752203,0.1775946998040494,0.0027887371004596,2.7872847943163072e-08,0.9879268772136196,0.0975625342299216,1.483260353880956,35.70081081081082,0.0195044524893722,7.528957528957787e-05,0.1402714932126696
-0.0736199095022623,43.12163324147279,0.0350144352718767,0.0011442516256389,5.1746445492576994e-08,0.7722615972480996,0.0625451783854839,1.5015851820283452,35.744727272727275,0.0193864568898976,0.0004417194508938,0.1493212669683258
0.2639853024307515,71.15496421548033,0.03326633222468,1.482783174857616e-05,3.297692667974924e-08,0.4186480320807404,0.0539559364417459,1.6758803859931268,35.805855855855825,0.0224799597827727,0.0005208845208845,0.0859242509892594
0.7257070135746614,112.44642905034527,0.3743095570734153,0.1309373334903189,3.2841323965215064e-08,-0.0366927504721936,0.046343897579991,2.1945393894575176,35.84709090909089,0.018942278568201,0.0002376755404278,0.1176470588235294
-1.0836743923120429,39.30585427347404,0.0737595462779013,0.0013878393348171,4.984947271309135e-08,0.2752762416207286,0.0787902428117487,1.4989302452856432,35.81450450450447,0.019670196907406,-0.0005075465075465,0.1492368569813454
0.0363235294117641,24.48305855878848,0.0063649149398867,1.4211275557715704e-05,9.451366625722697e-08,0.2889830169102967,0.0027175822853117,1.3436913900759562,35.78418181818179,0.0105642465791504,-5.770574577900579e-06,0.1538461538461538
0.0673883550028263,16.889657960836004,0.0027182251615348,6.819167839276931e-07,8.373381184360748e-08,0.095079665673411,0.1131767152248426,1.4807783750036894,35.813423423423416,0.0182818521493291,0.000493330993331,0.1537591859807801
-0.3836029411764681,77.38712148983588,0.0246548257989153,6.996313584996438e-05,3.4712854042218664e-08,-0.0719314897718926,-0.0260897523897557,1.4722538670153416,35.872909090909026,0.0268783608315622,0.0007123052994612,0.1493212669683258
-0.1567533936651557,90.26158769621463,0.0434693877796208,0.0070488240634091,4.0942527505904076e-08,-0.159672251172811,0.1228960841171548,1.4670606752436743,35.888558558558515,0.013072689835832,-0.0002141102141102,0.0950226244343891
0.6561107970604896,85.54834522239216,0.029223885512319,0.0023698396668343,4.831964704834952e-08,-0.2550337500539473,0.034468044059721,1.4910947760944808,35.844234234234186,0.0242936075657308,-0.0006060021060021,0.0633126059920859
0.0592307692307707,78.71410542780552,0.0350859928055734,0.0009432021972906,4.2224260338664774e-08,-0.3851950492021105,0.0428714225610475,1.4674600086985323,35.79472727272724,0.0142515766852837,-0.0002495773504947,0.0633484162895927
1.857897117015264,93.86292676505936,0.0146274243755329,4.348439841062225e-05,5.0482737079743727e-08,-0.4716513785461431,0.013884930043146,1.4811190687897289,35.75756756756756,0.0110865730183182,1.2460512460526252e-05,0.1492368569813454
-2.0777092760181017,64.05357256004592,0.0054806414520931,1.4904675892155524e-05,5.478557353902064e-08,-0.5520984754590255,0.0694226779805604,1.36113133644492,35.77072727272726,0.0163878608570813,0.0004257602055767,0.0678733031674208
-0.0270096099491234,13.792958999628198,0.0010705416295937,3.4805112755449686e-06,7.400679948367689e-08,-0.6214822233859709,0.0633911883839652,1.3872161277611474,35.82765765765764,0.0240852448178715,0.0005999473499473,0.1537591859807801
-0.9814479638009036,75.72889801462674,0.0135963110801005,0.0001250961213105,4.878782279592079e-08,-0.6776922732720396,0.0637033537666574,1.4747923627240211,35.89527272727268,0.0258565655776435,0.0006030250433919,0.0542986425339366
0.9487669683257908,74.46224302845074,0.0107031354170222,4.034382767767767e-05,1.1088234580480024e-07,-0.7078048409953324,0.0313649643221223,1.4965150812584544,35.901531531531475,0.0145934823288759,-0.0002695682695682,0.1176470588235294
0.0690898812888637,34.65489073747606,0.0050158261104769,3.340663065757725e-06,3.6260942668399414e-08,-0.7433763485380978,0.0733535851017592,1.3086420318469147,35.90036363636359,0.0147048089058871,0.0002348804183666,0.1447145279819106
-0.2148076923076924,19.23387589878116,0.0025281345995164,2.816129011724497e-07,7.604612033235932e-08,-0.7507199059055691,0.0776338126145036,1.40502877278731,35.92513513513507,0.0126537296332123,-0.0001351351351351,0.1447963800904977
0.0848728094968908,38.49426764308243,0.0102987246319646,2.813641407764285e-07,4.2375047839669146e-08,-0.7933648209590509,0.0282554652105226,1.3991220571702645,35.901636363636314,0.0124701295996221,-9.23291932466148e-05,0.1447145279819106
0.424819004524886,48.40327276469799,0.0040646839905299,0.0001026718525513,8.9980888752371e-08,-0.8219429277623522,0.0916444780118696,1.4386737933871212,35.902972972972925,0.0143692987656762,-0.0001312741312741,0.1357466063348416
-0.4014988687782803,25.914534476452,0.0018913361568539,9.073210121409377e-06,9.360960192900009e-08,-0.8463090549093044,0.0234056192129255,1.3438250637537892,35.875818181818104,0.0117071709323681,1.3705114622537966e-05,0.1447963800904977
0.194635387224421,35.02177460105067,0.0015163633679261,3.890657843930136e-06,1.0299487472970149e-07,-0.8682892878011905,0.0408266091368928,1.326482320136486,35.89576576576571,0.0129829791240723,0.0001937521937521,0.1401921989824759
-0.0363574660633486,16.094522562919547,0.0001394829172698,6.55458295282806e-07,1.0280812432843144e-07,-0.8891931490191186,0.0554030837200134,1.4094354706924008,35.91327272727267,0.0136254501783239,0.0001702319500484,0.1447963800904977
-0.1358055398530239,28.93390589582429,0.0067390771107259,2.845249604121687e-07,5.486280056068632e-08,-0.8955831190671456,0.0240284510795807,1.5412131273115242,35.92837837837831,0.0167944939787134,0.0002786942786943,0.1447145279819106
0.1665497737556558,18.044931188639268,0.000492357676896,7.336937226564653e-06,9.04545017699916e-08,-0.8450804144574166,0.1417824874655461,1.5047528045781418,35.92909090909085,0.0195190095941685,-0.0004795888465613,0.1447963800904977
0.1552572074618427,21.10228101537817,0.0006007727187054,8.138151475096428e-06,9.084095436664516e-08,-0.8414148046205205,0.0449282271750352,1.395805465303499,35.857567567567564,0.0257575744555067,-0.0007339417339417,0.1356698699830412
-0.4064592760180999,22.38650987152709,1.1173141793869345e-05,3.417732891244511e-07,7.525327169037216e-08,-0.8384070119943714,0.0125411278877814,1.3782264831626134,35.772545454545444,0.024137348036766,-0.0006282713071704,0.1447963800904977
0.1678789592760178,30.08249064127141,0.0110191296870583,2.150768282734311e-07,3.5427503450360875e-08,-0.8693441968548825,0.099407188748029,1.4634731667269758,35.69360360360358,0.0309836572089396,-0.0008727623727623,0.1402714932126696
-0.1511984171848504,16.255619826759958,0.0010897101480513,5.3647725951002e-05,7.353122728644526e-08,-0.8874960231847723,0.0360898524846351,1.3889527656485765,35.661171171171134,0.0108002951860514,0.0001482976482976,0.1447145279819106
0.3679242081447954,67.52061538416436,0.0280186654057767,0.0002755650298414,4.2533582744794054e-08,-0.896442312820049,0.0308780238246513,3.2788018011554683,35.69709090909092,0.0191332862997482,0.0003062011135405,0.1221719457013574
-0.2582815149802142,21.139069412132844,0.0022501458963588,1.1760697506255905e-05,8.856760456085677e-08,-0.8949352935144094,0.0126697965102658,1.474641688472368,35.68486486486482,0.0193993064269487,-0.0004199719199719,0.1356698699830412
-0.0901018099547513,15.410381747396624,0.0002593218236432,4.5224773250805e-07,9.154845130877493e-08,-0.8916553598424823,0.0837497042593918,1.3619958589301475,35.642636363636434,0.0157062392192775,-0.0003724274733448,0.1447963800904977
0.0823176936122105,14.810312799976844,0.000133043229254,2.3934373883508664e-07,1.2625977408592778e-07,-0.9034744819461942,0.0447090724029556,1.4029625393987193,35.61360360360364,0.0132061132986008,0.000110565110565,0.1492368569813454
0.3849321266968313,83.46900590535374,0.0226135597084334,6.262961984440754e-05,6.222949335678201e-08,-0.9390154848267348,0.0738333847145299,1.6234507638365154,35.63509090909093,0.0178756032089158,0.000440366972477,0.0904977375565611
-0.3216063348416285,22.45493670889952,0.0061539972110781,0.0002498959609096,6.130659676304865e-08,-0.8823285596216723,0.0159660749164749,1.7995014717508986,35.71279279279279,0.0194135260347309,3.071253071252834e-05,0.1538461538461538
0.1553250423968332,28.66799204733497,0.0080585819028644,1.9159547535871505e-05,8.983930117486187e-08,-0.8215156933606288,0.137802935837405,1.6066758294068968,35.66863636363637,0.0187557153823619,-0.000458805761558,0.1492368569813454
-1.9718778280542968,62.73429843740218,0.0050983983766885,4.183924416098421e-05,3.2615709294955774e-08,-0.8263411157244681,0.0086102547039384,1.6102350584841747,35.601891891891945,0.0258029090305485,-0.0007149877149877,0.1447963800904977
1.4702091577162186,189.7254214661104,0.1580796140982313,0.004893101299462,3.396582065712441e-08,-0.9927072925428532,0.0518811451082706,5.416395882931299,35.532545454545534,0.016317105560861,-0.0002434461150057,0.1401921989824759
0.602391181458453,159.3881806850995,0.2161539342892759,0.0140715697458312,7.0317223314993e-08,0.8882217229549844,0.1730609868355679,4.998964432890656,34.078181818181875,0.0145965013355839,0.0002233392692108,0.1582815149802148
1.2706447963800849,113.47477075693922,0.0548115762729189,0.0090312659054618,7.084445844020141e-08,0.914860012744624,0.5628585716823027,4.408709465723128,34.06621621621628,0.0140817467982573,-0.0002425412425412,0.1809954751131222
1.2101978518937224,68.55976741409593,0.0378155650667032,0.0025910579805996,9.338711329684369e-08,0.7029574177467418,0.309720440491742,5.95875499110912,34.01436363636361,0.0231016438898446,-0.0005532538376574,0.1401921989824759
-1.358252262443432,100.67050418881874,0.0670312510923285,0.0086336180785856,6.410283625292969e-08,0.5942872238147534,-0.6925019545891117,4.516164007547797,33.95468468468462,0.0156435416728991,-0.0003680238680238,0.0995475113122172
-0.690265837104072,59.06080982247321,0.0523925825412115,0.0103123727595423,7.459915911247434e-08,0.6046859458049866,0.3067623261100762,3.832240731922879,33.89463636363633,0.0228702773655426,-0.0006006356648558,0.1493212669683258
1.5124250989259485,65.26415210575186,0.0202701049591741,0.004607245914542,7.307447825647061e-08,0.60594510997621,-0.024598584822496,2.2414849758658253,33.86144144144142,0.0238556789411246,-0.00026404001404,0.1356698699830412
-1.6242703619909464,93.66037530451476,0.0774870215202907,0.0092975620727336,4.8819640432596985e-08,0.4782206962040876,0.1103360654649289,2.6741350854990342,33.79690909090907,0.0214791846190872,-0.000533778148457,0.0769230769230769
-0.6522611644997147,96.12917848628136,0.2068337958674854,0.0317896873841478,6.295464301876669e-08,0.6350369370002498,0.5805419379115881,3.7303136440756615,33.75306306306306,0.0182471912088985,-0.0004408564408564,0.07687959299039
1.280565610859728,105.80537696605488,0.0942591857151813,0.0173456090155408,7.285869887059554e-08,0.878014578264928,-0.3856646707688821,3.350001392354406,33.66490909090913,0.0264143712449197,-0.0007245677704393,0.0950226244343891
0.0330864895421142,91.20346357506416,0.0959692206033988,0.018308402353264,7.315859622834255e-08,0.9883926514755672,0.0253423541497696,3.8589686789506814,33.595945945946,0.0187144679965383,-0.0004299754299754,0.1763708309779536
0.0266685520361997,76.42227625330388,0.235969577186303,0.0122823169425584,4.376812354738718e-08,1.2019722196641551,0.0525569905910308,3.5147310956093003,33.546727272727296,0.0304544097690331,-0.0007977819353966,0.0904977375565611
-0.2037273755656093,33.86466091518991,0.2610585408988231,0.0964058592641618,2.9916227884589195e-08,1.4561137627284917,0.0507627087924249,1.933093820824192,33.47450450450443,0.0220865920249596,-0.0005124605124605,0.1266968325791855
-0.1215602035048043,34.92808026999999,0.2137023045752103,0.0132507727670294,7.743747410614697e-08,1.587671120079394,0.0968286212333022,3.3067301670843814,33.40531531531528,0.0244514529062169,-0.0006858546858546,0.1266252119841718
0.0526300904977357,48.69137037526814,0.1456699322318973,0.0352598467381963,5.5747940752642075e-08,1.8242484451973549,-0.0042477212195287,1.8834763266789896,33.356000000000016,0.0203246379817908,-0.0004775150463223,0.0904977375565611
0.3248728094968917,55.63110034509158,0.1193971833543146,0.0091760421941385,6.725699651090599e-08,1.7544956860638188,0.0323346378317343,2.249438495189465,33.303693693693674,0.0245657025955751,-0.0006422428922428,0.108535895986433
-0.1494796380090498,38.047680341477225,0.1579026724520027,0.0304539050311329,4.5870433556138826e-08,1.7312133626284394,0.1247758247060719,2.246135375220378,33.205909090909074,0.0438654026964202,-0.0013219574870951,0.085972850678733
-0.2905992085924252,24.08749722439506,0.1244184265396507,0.0332438559190011,1.0472127634278622e-07,1.8255204182305047,-0.0413950862022654,2.937526305670741,33.077117117117176,0.040166037991134,-0.0011825201825201,0.1311475409836065
-0.4184332579185524,20.96821093942138,0.109243052641849,0.0189028866786059,6.566508995396574e-08,1.8527829811819896,0.457969494337331,2.9861857777670067,32.96909090909084,0.0258859545821304,-0.0007361089195951,0.1131221719457013
0.5470022624434387,48.28309108454772,0.1650096180949311,0.0380501748975314,7.706198333623175e-08,1.993089652005008,-0.2025607995099972,2.7317417528135803,32.86369369369365,0.0328229739342443,-0.0009419094419094,0.0995475113122172
-0.2871848501978513,44.78574076163559,0.0882139698590048,0.0109830980136172,6.642098063606178e-08,2.0419263368726965,0.170719822648454,2.755995228512272,32.773090909090904,0.0242991004152778,-0.0006642472330545,0.0859242509892594
0.3791402714932129,40.157753769795534,0.0997893482973209,0.0285469688210113,6.436405898766394e-08,2.1373726832781466,-0.1087719816176233,2.387831397591828,32.67756756756758,0.0328308857060763,-0.0008653913653913,0.0950226244343891
-0.3907292255511591,33.55878416713445,0.1478347274304566,0.0345853794718476,6.190938913363871e-08,2.2159681211566165,0.0504005510627924,2.053710582574816,32.61472727272734,0.0208766546827738,-0.0005381060793904,0.1040135669869982
-0.3454663651780668,47.55608607770508,0.0383956468536024,0.0086168127965541,5.55488365891725e-08,-0.6586285865050198,0.0448959947809624,1.8503530026144288,34.39872727272724,0.0228078571353695,-0.0003913170885647,0.1175805539853024
0.2342760180995476,24.205950446789146,0.0243186134722366,0.0033509052849173,6.448440895048453e-08,-0.5467155856783948,0.1054042091797581,1.7886706119129805,34.37486486486484,0.0226554635084667,-0.0004685854685854,0.1402714932126696
0.170090446579988,24.90936267075867,0.0087837257482094,0.0001346059369277,5.449842917957182e-08,-0.5943254122162442,0.035459466067066,1.90668298361166,34.33763636363636,0.0191609106220905,-0.0004230552487433,0.1356698699830412
-0.1807466063348418,70.0097770976424,0.0658242860917404,0.0089683103722834,4.260436757748532e-08,-0.6432733807768211,-0.0006307670854766,2.66643211118942,34.28531531531529,0.0258833077734849,-0.0006553176553176,0.1357466063348416
0.0920814479638008,41.29425807912745,0.0119950569399505,0.0009639010946538,5.0552284122994113e-08,-0.5992967998411635,0.0851073909503525,2.055974530504196,34.23499999999999,0.0238841902825819,-0.0004980276356423,0.1493212669683258
-0.316794799321651,27.792759228479422,0.0228465278160624,0.0006791889882122,7.91194199646914e-08,-0.5801105020536186,0.0187626620653484,1.8643208884240965,34.19225225225221,0.023659928669738,-0.0004268164268164,0.1582815149802148
0.1249660633484167,22.64031598786825,0.019063661302587,0.0001397869742739,6.008313368793516e-08,-0.6493404253249924,0.0806921086307888,1.9814420065199367,34.15854545454548,0.0088252080723721,-0.0001976421792935,0.0723981900452488
0.0013906161673264,18.06858536035124,0.0028650325696767,2.7690070412702105e-05,1.2090400238879518e-07,-0.6839694842143996,0.0814926783309556,2.074924955694076,34.12873873873881,0.0168253946377348,-0.0002885222885222,0.1401921989824759
0.1594343891402715,14.462131844424412,0.0018710751010664,1.6453342959148038e-06,1.0008162526919948e-07,-0.7466183610717915,0.0195006724659258,2.0028881957253946,34.09400000000005,0.0154449167866141,-0.0001211820661362,0.1357466063348416
-0.2208705483323902,82.13305133002022,0.09156989473187,0.0030662885223296,6.275495328840987e-08,-0.5970218184484103,0.0637114004861506,2.2721467651020624,34.071801801801875,0.0262420540765954,-0.0006960336960337,0.1582815149802148
0.0403393665158366,51.18826188332598,0.0132004436262472,0.0006797910387599,6.213036400054341e-08,-0.4824760575595321,0.1669006379212012,2.5843104687707985,34.030363636363695,0.0159503361450622,0.0001897076392489,0.1312217194570135
-1.5869287330316757,65.77352655247223,0.0514662188445254,0.0059285648444526,3.24603197080899e-08,-0.4775186436228207,-0.0097007654830316,1.9341580080860203,34.100270270270315,0.018573421844831,0.0003395928395928,0.1402714932126696
1.875161107970606,45.75164844002562,0.0560950255442503,0.0016892280708328,4.0485969682264276e-08,-0.4830408558976225,0.0808357662405645,1.9719111947353152,34.08765765765772,0.0133527980638916,-0.0002151632151632,0.1356698699830412
-0.0725169683257907,44.80811258900896,1.1563512623019674,0.1661799398841876,3.8385571459181784e-08,1.980637256589132,-0.2144568290154279,7.208416142085817,32.63727272727279,0.0138110029198772,-4.291864842322678e-05,0.1945701357466064
-0.0122611644997172,13.20858763930845,0.0232761301327412,0.0004056716991483,1.1639976030264267e-07,2.8462390625425886,0.1977138146534662,1.8300512333615435,32.58819819819825,0.0278411905033791,-0.0007830817830818,0.108535895986433
0.4178337104072399,36.273050946973854,0.1032173338199641,2.2151555721080117e-05,6.326876897525718e-08,2.450278875627166,0.0715040172000617,2.392760230658145,32.55581818181824,0.0200627115987407,0.0003895137840092,0.0904977375565611
-0.3692255511588471,50.92530725111171,0.1773266338529244,0.0236716056730144,3.6174758879898084e-08,2.0250213463240483,-0.0018411209758071,2.326970102699978,32.61198198198201,0.0183960346206849,0.0003404703404703,0.0904465799886941
-0.2685576923076926,48.487022225888175,0.282447683783924,0.0706187525049991,2.7139270093438483e-08,1.6930262655390012,0.0180761785644758,3.3747998275470827,32.66918918918916,0.0236770742932982,0.0005015795015795,0.1176470588235294
-0.0400169587337493,20.33395352530312,0.1106657079551772,0.0010990447719637,5.14902952072721e-08,1.5444902941394856,-0.0175111980782405,2.1943923412497965,32.65700000000002,0.0135880963948727,-2.565200730336153e-05,0.1130582249858677
0.1301640271493211,11.560862941525302,0.0009072147887634,1.1848812779811085e-05,1.5303739232130126e-07,1.300146851377732,0.1810006504189985,1.7886098183674095,32.766936936936915,0.0335522395646982,0.001001404001404,0.1085972850678733
-0.1176583710407242,20.03575480886903,0.0059784469321019,8.318629123240775e-07,6.996761995479076e-08,1.0397530297869209,0.0165203095665762,3.970600158140628,32.819090909090875,0.0189997825128916,-0.0003779726348533,0.1131221719457013
0.1030582249858674,19.32917868524499,0.0235971213008707,5.183966530434589e-05,2.8128423742696962e-08,0.8129514312722461,0.091224633332135,1.6535525283103558,32.74603603603604,0.0251582121451638,-0.0007223587223587,0.108535895986433
-0.2017986425339372,26.149039619252328,0.0344935322084437,3.157289258310446e-05,3.3144904220719137e-08,0.6628692200142662,-0.034992658614915,1.8925079643592728,32.67472727272725,0.0185721732663348,-0.0002878074070734,0.1131221719457013
0.1704635387224412,38.20309240514364,0.0206573537582601,0.0010902721450724,7.70978536533057e-08,0.6106914558481226,0.0918550385818426,2.0137624632434576,32.78207207207208,0.0560745500737799,0.0016855036855037,0.108535895986433
0.237466063348416,28.168703173711577,0.0193937410633232,0.0006048433238638,8.38971199431839e-08,0.4894252515702166,0.0626351911986383,1.6946798558478977,32.827818181818145,0.0124595212356452,-0.0002301016612943,0.1357466063348416
-0.1391916336913504,45.84221796512007,0.0150672005922231,0.0003438228432448,5.481473484390695e-08,0.4989456520950667,0.0405436328347152,3.721241633400632,32.84045045045042,0.0209412471722762,0.0004447174447174,0.1040135669869982
0.8536877828054295,33.391325848837525,0.014536542372983,0.0008942865327929,7.0077019879468e-08,0.4630639246227119,0.037576681134521,1.4939136312160337,32.833999999999946,0.0103747946310465,-0.0002086423370827,0.0950226244343891
-0.9587386877828042,25.981892862598947,0.0255111444094894,0.0078105790405733,3.2264421490177294e-08,0.3318683124056185,0.0383619351760003,1.9515005107118053,32.81558558558554,0.0139938651091505,0.0001389961389961,0.1040723981900452
0.0952345958168459,12.055043682848629,0.0018569789282113,1.4060705061119212e-05,9.922640695638213e-08,0.2541508186022565,0.1612376934998432,1.7329384040496618,32.842181818181814,0.0121641663154011,0.0001839370646709,0.108535895986433
-0.2659558823529429,97.4603888482304,0.0297782057794813,0.0013813895451885,4.779848110580166e-08,0.1256516550163967,-0.025140359718107,1.956925386056785,32.84441441441441,0.0187772473342035,-0.0003674096174096,0.0950226244343891
-0.3536065573770497,97.89294851817353,0.0093027811391288,0.0002121167939179,7.844103732587063e-08,0.0503339419914693,0.0999557584266826,1.94024275758464,32.821999999999946,0.0103396852422623,-8.006672226854684e-05,0.1447145279819106
0.5619117647058811,51.62201160008468,0.0201604950676016,0.0018237270567153,4.2141558737886855e-08,-0.0091000592545042,-0.0079514833268979,1.5710730092853722,32.8766666666666,0.0316891811854484,0.0007948402948402,0.1040723981900452
0.0025735294117646,33.81568648044743,0.0122842155564317,0.0001628549411954,4.4861027321790675e-08,-0.0669381050628007,0.076947780716026,1.8133064252748348,33.085636363636354,0.0699548851075687,0.0021455717602506,0.1131221719457013
-0.0408705483323908,43.96481782733704,0.0161992238608799,1.1815544292529137e-06,4.574686420840058e-08,-0.1322543000065839,-0.1320204756003774,4.1686226582874415,33.245135135135136,0.0198582755511317,0.0004420849420849,0.108535895986433
-0.2151018099547518,80.43200306654884,0.0384761498302267,0.0043440167752297,4.2157331649102346e-08,-0.1886366616197234,0.3191332895473984,1.9386349444982005,33.27509090909089,0.0138659461563173,-0.0001846583864932,0.1357466063348416
0.2804522328999444,25.795657495799446,0.0349162848104267,0.0069265526259319,2.7808804001485912e-08,-0.2111687894420537,-0.0336441230951427,2.3197856470687626,33.248378378378376,0.0184312963640298,6.949806949807913e-05,0.1130582249858677
0.0875113122171947,7.3125999180926895,0.0005575909726268,7.56907220624068e-07,8.649692895148848e-08,-0.2427162683118985,0.1414759455031374,1.7908422691803374,33.32513513513513,0.0314475070945088,0.0008655668655668,0.1131221719457013
-0.0013453928773319,9.508027604037729,4.9577550221353e-05,2.499123929774368e-07,1.6682789964160397e-07,-0.2812241885497929,0.0521165632694955,4.39275654012647,33.43709090909084,0.0208171893372009,0.0005113270067398,0.1266252119841718
-0.048930995475113,7.1871232295338725,1.061574202603393e-06,2.3740353624771186e-07,1.3105713553631026e-07,-0.314723951482144,-0.0418406203855238,1.5059288034201013,33.43630630630625,0.0107324487292524,-7.335907335908483e-05,0.1085972850678733
-0.0875565610859722,21.1017304656512,0.0025463610057775,5.609772439005857e-07,6.455539173569069e-08,-0.3502327345530559,0.1001397674153477,2.3542056502248645,33.41672727272723,0.0275056718418429,-0.0007050920812389,0.0904977375565611
0.055715093273035,19.59643209874684,4.0797839958707646e-05,2.983418295206072e-07,1.0302631309035145e-07,-0.3807697329900817,-0.0928219860409423,2.9003053649795865,33.29288288288287,0.0308552968976786,-0.0008842576342576,0.108535895986433
0.0558653846153846,31.54503466528312,0.0093979391925279,1.834824628835605e-06,3.605858434502239e-08,-0.4028435110148252,0.1526646500178126,2.0174507627852267,33.224727272727286,0.0157658486441755,-0.000133534702342,0.0995475113122172
0.1304578858111925,21.249940310880987,7.679959247273599e-05,2.603045721126427e-07,1.1916305481745641e-07,-0.388677467444485,0.0834612056987385,1.3836499791726284,33.19324324324321,0.0233717378477072,-0.0004026851526851,0.1040135669869982
0.1051809954751129,19.15240785256389,0.0007497930067999,2.3897089815148893e-07,5.551655913191466e-08,-0.4022600614185609,0.0152024620260475,2.032138793431713,33.16763636363632,0.0117494504882945,-4.255798751212465e-05,0.1085972850678733
-0.2414075749010737,49.6485975759991,0.0068621444601819,0.0001769773503614,6.406391841867719e-08,-0.4342714153566312,0.0996889933449148,3.5677672011764083,33.1616216216216,0.0102702702702708,4.229554229553912e-05,0.1266252119841718
-0.0750622171945701,10.911595766343003,0.0017517421618619,2.788555282333782e-06,8.058496010485441e-08,-0.4540313339702025,0.0575910025280962,1.0252616575316915,33.17399999999994,0.0091651513899131,-0.0001079277776525,0.1040723981900452
0.086589366515837,10.329247253860284,5.384955036424569e-07,2.769513425816557e-07,1.6287959652621578e-07,-0.4758948922647835,-0.0181960842635659,1.5519799829795768,33.16612612612609,0.0135014961580798,-0.0001019656019656,0.1131221719457013
-0.1056359525155454,6.681792202517384,3.884519732087964e-07,2.75218411702432e-07,1.9496328825232369e-07,-0.4949702244623842,0.1292394424358794,1.515511260918282,33.146363636363695,0.0111784917446809,-8.150936591301942e-05,0.108535895986433
-0.0202658371040722,7.280196274230622,0.0002379507407438,1.926115293620929e-07,1.1956728353060878e-07,-0.5012911245904427,-0.1404212486631145,2.810727613595682,33.13558558558566,0.0099262764114139,-2.75535275535255e-05,0.1040723981900452
0.0654550593555679,7.103863297328602,4.350024814111296e-07,2.6070852070008336e-07,1.570645234638972e-07,-0.5083685618637673,0.2742750174651243,1.3197931713383764,33.13818181818188,0.0132926376192237,6.356648558482877e-05,0.1040135669869982
0.0807975113122171,6.2225374281695744,3.615962079170402e-07,2.7492398285651e-07,1.8108852004131146e-07,-0.5167417159824726,0.0641209136390183,1.5238846530064014,33.13540540540547,0.0128598673009398,-2.825552825551627e-05,0.1131221719457013
-0.1989479638009052,10.584868010214976,9.203168633317837e-06,1.999902181420669e-07,1.302399430976262e-07,-0.5233401300730743,-0.2725151723893841,3.6298793567878143,33.1456363636364,0.0105767560525426,3.606609111195549e-05,0.1085972850678733
0.1181628038439792,19.83649318593978,0.0005842357676788,6.254799150966239e-07,1.1942470382051346e-07,-0.524373813825763,0.3571306089989563,1.3922562209227018,33.22351351351351,0.0435093165677864,0.0011883116883117,0.108535895986433
0.0519400452488688,9.405372767926073,0.0097785758376927,1.0109863916299014e-05,4.5530526504212906e-08,-0.5355757851943906,0.0262311222067343,1.7862472048186295,33.24072727272728,0.0128423370083004,-4.156617000654348e-05,0.1131221719457013
0.2518438914027149,19.95132673988155,0.0010632677274564,5.9465493939604105e-06,1.0585737339586833e-07,-0.540511223409696,-0.2014814938326407,6.411612351685443,32.705999999999946,0.0228512979539845,-0.0006066316525031,0.1085972850678733
-0.1078858111927643,16.92699678551689,0.0091682986933076,0.0008965599224425,8.509448556850434e-08,-0.5213910512726964,-0.1053589327901635,5.32513335981086,32.63954954954962,0.0185699256712752,-0.0004475254475254,0.1356698699830412
-0.1645588235294118,12.776131172876228,0.0143275058662339,0.0003070307193635,8.086812178322235e-08,-0.4437650258858383,0.1879396538196509,4.548722832947622,32.5794545454546,0.0211847442380071,-0.0005038432928341,0.1402714932126696
0.1155398530243074,19.50205548890948,0.1353124022986737,0.0128751917043614,3.5964256605959865e-08,-0.1801630387937808,0.093989707040338,4.435239202036407,32.53504504504512,0.0186901657367774,0.0002839592839592,0.1628038439796495
0.2301809954751133,16.294201383403145,0.4089895536559191,0.0984967554769516,4.3973107790087727e-08,0.5527631730907736,-0.3323947693700968,3.744210469692107,32.509459459459435,0.0199926940636828,-0.0004369954369954,0.1312217194570135
-0.2303109101187108,22.76038436900056,0.4208546549275565,0.0142029493952804,6.057652941651675e-08,1.013186635284834,0.2419292405968053,4.220042457727414,32.47590909090902,0.0135710557333988,9.002997993825171e-05,0.1356698699830412
0.1014649321266973,23.270832873286185,0.4059515547838362,0.1278848067476441,6.1236261351293e-08,1.1960499191735807,-0.0509708871739372,4.683755884702651,32.443423423423376,0.0264913888948375,-0.0007172692172692,0.1900452488687783
-0.1414819004524887,16.81283050638856,0.2427699458233797,0.0412537230668545,4.784030009130005e-08,1.4886901316747576,0.3120653509243162,5.989128839964571,32.41254545454541,0.0142978932736999,1.803304555599184e-05,0.0950226244343891
0.0319219898247597,16.69548388219459,0.2561095902537048,0.0603353485092012,7.635503933455606e-08,1.4820024826718132,0.2633903502629075,3.9416312116967096,32.36288288288284,0.0178273697557901,-0.0001985784485784,0.108535895986433
0.0551244343891406,17.820464311787262,0.6261246065693427,0.0985781736505799,3.16172235483404e-08,1.4612010046356314,0.2315609201922953,6.492905058981703,32.34154545454543,0.0169591146658042,-0.0002517863985754,0.0633484162895927
-0.0323855285472018,11.63871308861075,0.2680449808587374,0.0777946886240885,4.7238742458537263e-08,1.9662383437706847,-0.4451559613278826,5.157771493585408,32.28387387387385,0.0138960861150683,-0.0001060021060021,0.1311475409836065
0.0630938914027151,9.4392618961988,0.1210977749598126,0.0118224023035211,9.084269832150457e-08,1.9152314631102083,-0.0765864672328999,6.023578776495392,32.28054545454543,0.0113487174795091,-2.95741947117971e-05,0.1809954751131222
-0.0586998304126625,7.7167263365423615,0.0325263268719475,0.0039592094042172,5.7153066902447196e-08,1.736604198097325,0.2878037816476531,3.396594274549805,32.22117117117116,0.0302761684515376,-0.0007758862758862,0.1401921989824759
-0.0308484162895927,7.66962686943693,0.0193591061928709,0.0007246031684507,5.718661694566367e-08,1.41990865943948,-0.1616759502879097,3.348220322152436,32.15636363636367,0.0107641891749928,-0.0001319117282419,0.0588235294117647
-0.0987386877828057,6.405456344161973,0.0062601699154744,0.0002388335421116,9.871017121332677e-08,1.1556207119752744,0.1695057170280027,4.816501090454586,32.131261261261336,0.0140216767267337,-0.0003081783081783,0.0814479638009049
0.232916902204636,9.002530978482273,0.003459189039687,0.0001241506969583,1.0620514346642365e-07,0.9362272403874852,0.0781528336217426,3.645056362755288,32.08963636363641,0.0154876650465792,-0.0002099046502716,0.1130582249858677
-0.4065837104072394,12.444709373194057,0.0139281215080033,3.1606101252797984e-05,8.401584258604829e-08,0.7742772167436417,0.2828470524048994,4.511634181769505,32.051441441441504,0.018832923387718,-0.0003569673569673,0.085972850678733
0.2463990955342008,4.987281628839316,0.008213423614307,0.0002919859654784,1.0523409154180825e-07,0.6656710515164298,-0.0635398666328977,3.567559320826861,31.998545454545397,0.0142596929481393,-0.0002678808917341,0.0723572639909553
0.033314479638009,4.3990608943024725,0.0029718823072146,7.827548713791458e-05,1.092277221989176e-07,0.5635700749992555,-0.0164662867835344,3.847676086621201,31.977747747747674,0.0163676611880011,-0.0002937872937872,0.1221719457013574
-0.0381447963800904,6.472806574576813,0.0021984867297677,2.86053534629406e-05,1.356264774481862e-07,0.4643560085297454,-0.1547268980008692,2.7366198626753544,31.959454545454484,0.0156574910120803,-0.0001435430426256,0.0497737556561086
0.0274674957603166,11.35798597816301,0.0026891213839089,0.0001330157348553,9.142895891680529e-08,0.3764850219646862,0.0408200613161287,3.9918508503388734,31.945135135135068,0.0126537296332101,-2.211302211302164e-05,0.0994912379875635
-0.1385803167420811,8.295979868449063,0.0017371769104756,1.4448164094515992e-05,1.5684392625060414e-07,0.2875458827510442,0.0501479447756986,4.759779699688192,31.92327272727268,0.0153213511692958,-0.0001714040980095,0.085972850678733
0.0366591294516677,10.940146720365211,0.0033992052562232,6.012828370633669e-05,8.905576929952413e-08,0.2109787399161124,0.1092384771481749,3.7290205567312618,31.90351351351348,0.0201189547419208,-0.0005036855036854,0.0859242509892594
-0.266510180995475,32.05829456528036,0.3976235153083129,0.0287941704610047,1.5326071111316362e-08,-0.8911182161296906,0.1065419583344777,2.785140425113217,30.712181818181843,0.0204219943012344,0.0004580393571219,0.0950226244343891
0.1248558507631429,11.872668143029466,0.0126803210976906,4.729503350944714e-05,5.5039120099432165e-08,-0.5246029738623358,-0.0718181548179237,1.3618583121108032,30.787477477477445,0.0316645841458931,0.0008567918567918,0.1175805539853024
0.2857466063348416,27.41830338117784,0.0030090899056194,1.0297017640515611e-05,8.609241326049809e-08,-0.5146660200538961,-0.018413813108496,2.9240207148530986,30.84109090909086,0.0113093247564261,-2.479543763947669e-05,0.1040723981900452
-0.2939853024307519,10.007845594000855,0.0004361760607841,2.579159465116377e-07,1.1408846527162295e-07,-0.5060975425121572,0.1340934525427583,2.1878102878946555,30.84639639639634,0.0178478450407791,-8.073008073003971e-06,0.1040135669869982
-0.1569966063348423,22.04459747423149,0.0023028117180146,2.406093452156563e-07,4.016687448679456e-08,-0.5136440973862538,0.0823926489324707,2.4633823051070487,30.8548648648648,0.0114580995283496,-3.966303966303843e-05,0.0904977375565611
0.064041831543245,19.124065382837543,0.0096025209383925,1.0414252350076731e-06,1.5869978216026664e-07,-0.5237054961477066,0.0363197995282447,1.9273458075770484,30.844181818181767,0.0121641663154032,-8.601762730203856e-05,0.1040135669869982
0.1445701357466073,42.07760218838292,0.0110903885277302,4.467826101596016e-05,3.792281570141666e-08,-0.5143761486732237,0.0352799642827427,2.2935238968584835,30.873963963963924,0.022432251527908,0.0003366093366093,0.0995475113122172
-0.059117647058824,17.17945446696545,0.0007053139068968,5.213306611427108e-06,1.1492567317050847e-07,-0.5049089894735754,0.1481763949969625,2.121930806158331,30.885999999999942,0.0116930437751368,-9.160787142438322e-05,0.1176470588235294
0.0666252119841723,24.92201035629495,0.0001723119149248,6.059997137813446e-07,1.2836340375476697e-07,-0.5136941832724404,0.0785314066680507,4.923719433762002,30.912342342342296,0.0196800971832978,0.0004010179010178,0.0678349349915206
-0.0209785067873303,7.2301905609084285,4.12041283824744e-07,2.696712357104241e-07,1.7733873182488036e-07,-0.5225402215251735,0.0947786011082989,1.8019360318219264,30.948363636363567,0.0181171577505596,0.0003681446250253,0.1131221719457013
-0.0221707179197291,20.8236210245621,0.0002516121292133,3.336211704718764e-07,1.5744924730527728e-07,-0.5229798785557369,-0.0832428398207269,3.131272662420634,30.961531531531467,0.0138328632199414,-6.160056160056028e-05,0.1356698699830412
0.095079185520362,8.061570623726587,3.994987030867232e-07,3.503993623792045e-07,2.115099599429665e-07,-0.5264174797681314,0.0808467318681092,2.1284663618509154,30.964909090909032,0.0127739404147272,6.708292946824913e-05,0.1131221719457013
-0.1735104578858118,13.928840382589277,4.512298743152743e-07,2.926252874983116e-07,1.991771819566037e-07,-0.5288505006559551,-0.0667252913833884,3.130466469422569,30.97216216216209,0.0098094829468943,-4.527904527904431e-05,0.1040135669869982
0.4146636517806629,80.1799697177367,0.00357248717841,4.330181743236781e-05,2.3722153034155483e-08,-0.3897601322849431,0.3606818453441281,2.2770936301172253,32.71218181818182,0.0625428117834917,0.0018556003877105,0.1673261729790842
-1.6281052036199029,68.79122512306618,0.0021002225214929,3.835196383872163e-06,1.96921322567338e-08,-0.4088094730065238,0.0098873292845764,1.882860783015432,32.82468468468465,0.0111355141484805,0.0001436468936468,0.1357466063348416
1.190378959276018,48.23118579361022,0.0005284906361475,6.82170639196857e-07,1.7742129611083422e-08,-0.4231758497228397,0.034346554373255,1.701313625566226,32.883363636363576,0.0215439201601689,0.000581700967022,0.1221719457013574
-1.2194460146975703,40.95337953365144,5.803082650247108e-05,6.682224874223954e-08,4.265154665995642e-08,-0.4306739802354117,0.0691923209127158,1.2847252605161532,32.896666666666626,0.0121056411043164,-0.0001475956475956,0.1311475409836065
-0.18670814479638,39.66578166779944,0.0003387352766253,1.653990118285216e-06,2.2436590237869764e-08,-0.4418814401368815,0.0354084057887304,1.3317743388590373,32.89727272727269,0.0144542595740733,0.0001976421792935,0.1357466063348416
0.0118767665347661,37.584282583623775,8.244621646064382e-07,7.543119168495539e-08,3.982608992369062e-08,-0.4526374994784737,0.1050891310189209,0.9797297186921372,32.89792792792789,0.0111595405889729,0.0001597051597051,0.1221028829847371
0.2841968325791852,39.7615556502253,0.0001314783394002,6.954718179922855e-08,2.4751743234270463e-08,-0.4609391267217597,0.0112238325731003,1.4872726876265494,32.890909090909055,0.0115636935390234,-6.518945968488006e-05,0.1266968325791855
0.1533295647258336,36.61619406608458,1.0777400114217534e-06,8.067199967389362e-08,2.9014260785893323e-08,-0.4656594227524804,0.0965518771942615,1.1428612123269546,32.891261261261214,0.0117876953036363,-8.073008073007015e-05,0.1221028829847371
-0.2294513574660632,35.56886193496093,1.1267902881024969e-05,8.471789844187617e-08,3.9104779298281e-08,-0.4728668712591002,0.0473880777683441,1.1662303206460434,32.89581818181814,0.0130301620852127,4.327930933432686e-05,0.1221719457013574
0.1678506787330314,33.02006006597363,7.640734688652122e-05,9.146251606838e-08,3.3166512414806856e-08,-0.4781515041890178,0.0896422894930498,1.3784173000035642,32.90009009009005,0.0099995941805469,-3.15900315900253e-05,0.1221719457013574
-0.3143131712832105,32.250289349673245,0.0001239851675287,1.5984649118365326e-07,2.714951189207903e-08,-0.4836371658953276,0.0553931675161412,1.6383074103688882,32.897454545454515,0.0120178929961156,6.482879877374048e-05,0.1221028829847371
0.2168325791855208,31.05046551576527,5.010422396092093e-05,6.053708890194332e-07,3.746984346879425e-08,-0.4859880258409778,0.0773414635876431,0.9177336192422616,32.90747747747743,0.0104380168345651,0.000110214110214,0.1221719457013574
-0.2304183154324476,34.64956229215786,3.013752011594525e-05,1.1032315061653555e-07,4.268095848786813e-08,-0.4906467294082735,0.0450669936415895,1.0951086992076955,32.91594594594589,0.0160167917730061,4.334854334856321e-05,0.1221028829847371
0.1929694570135749,39.75878225581276,0.0008782511906802,1.144168088649742e-07,2.9398394176174574e-08,-0.4963094973485489,0.1945280237388196,1.964682813517997,32.9256363636363,0.0082602303211653,4.90498839122769e-05,0.1312217194570135
-0.1280553985302427,48.95172087074389,0.0005721650448122,1.5958143154266524e-07,2.0260796209971212e-08,-0.5043393244121328,-0.1180860030097634,2.2191385767563125,32.93432432432426,0.0098293201419733,7.651807651808847e-05,0.1401921989824759
0.2776923076923073,34.07969819170135,0.0001236904002812,1.1384073987586572e-07,3.4387244845477934e-08,-0.5038226253468366,0.0732442386245767,1.5081257176375815,32.9496363636363,0.0154876650465795,0.0001204607443139,0.1266968325791855
-0.5917138009049766,35.972595364460346,0.0002164652681034,1.126302305130672e-07,4.14404159983688e-08,-0.5057655917434302,0.0857978130159731,1.6517960680402013,32.968378378378304,0.0071710806277946,2.3166023166028657e-05,0.1176470588235294
0.4549067269643859,37.10354186291514,5.378749188563734e-05,8.861429610086659e-08,2.9375885794227548e-08,-0.5076099606096218,0.0765697569383854,1.090243573566572,32.979818181818125,0.0144588329833246,0.0002582332123616,0.1130582249858677
0.1689705882352943,37.34936201220298,3.317760365069137e-05,7.941212431863624e-08,3.1706535197426295e-08,-0.5073320582241635,0.0275563806694443,1.3047793417823528,32.984234234234165,0.0111943960843318,-1.965601965602946e-05,0.1221719457013574
-0.7517806670435269,35.70291823250687,7.330986245241946e-05,1.4086687702738912e-07,3.9621666796841006e-08,-0.507822691720364,0.0450738206976516,1.4996340301063278,32.99345454545451,0.0081392833765814,5.842706760138071e-05,0.1266252119841718
0.5314253393665154,34.89523971321325,0.0002214745563789,6.591729778965238e-08,2.5823597264707137e-08,-0.5099525552036462,0.1409616920476319,1.6874731751846035,33.00639639639644,0.0128604984136106,0.0002589505089505,0.1176470588235294
-0.1580147058823511,34.821950527447235,0.0002360203287433,1.0462469340767817e-07,3.9703902169528686e-08,-0.5195874890336014,-0.105493754786378,2.365283546528266,33.028000000000056,0.0183798308430232,0.0002345197574555,0.1493212669683258
0.3942566421707186,38.50359998327223,1.1851868647470558e-07,7.536166943262328e-08,3.8983279943343127e-08,-0.5150958331518871,0.1268528250081994,1.4953391157744311,33.042072072072145,0.0111595405889728,-7.371007370996053e-06,0.1175805539853024
0.1372285067873303,40.03826507978797,2.045967640485156e-05,6.485258824426067e-08,2.6964171975543893e-08,-0.5141114089521595,0.0534619309763888,1.1593536726877542,33.05727272727279,0.0110296370095306,-1.875436737822634e-05,0.1131221719457013
-0.5954041831543246,38.327947055098775,0.0001485974268065,1.295308909110987e-07,3.0428673496130265e-08,-0.5126846460272232,0.0579118457455359,1.2659316431393943,33.06279279279285,0.0110013243405225,3.86100386100323e-05,0.1221028829847371
-0.0385350678733032,35.81650558692244,4.742459081249231e-05,9.063873986139136e-08,3.0105860480277574e-08,-0.5139115668205589,0.0373336228721822,1.4959104506177232,33.06927272727278,0.0137317873370924,9.232919324663888e-05,0.1131221719457013
0.374409270774448,36.395464051295576,1.2378699381878574e-07,7.83308128909176e-08,3.869696010684787e-08,-0.5136880250215854,0.1104570029255474,1.345496482474159,33.06639639639645,0.0132061132986029,-1.3689013689015828e-05,0.1266252119841718
-0.2408484162895927,37.43502950457893,1.1611827210018593e-07,7.717350844293502e-08,4.0765681941730897e-08,-0.5132246782817421,0.035768378151941,1.0441738238399938,33.07290909090914,0.013970452881673,0.0001529202263147,0.1221719457013574
0.1615441176470587,35.166488342031954,0.0002409876218283,6.445253623996327e-08,2.887905549218217e-08,-0.5145373247182989,0.0304048509907896,1.2739815006885629,33.07810810810816,0.012412832179929,5.563355563355821e-05,0.1176470588235294
0.0795986433013001,35.088644790373486,5.173385402271666e-05,7.763353651423427e-08,4.449394086596205e-08,-0.5140930593422387,0.1787843936466331,1.1735955742468525,33.070545454545524,0.0136072416305967,-0.000118386944075,0.1175805539853024
0.0508880090497727,38.40403281538533,1.002416295391795e-05,7.445159196799626e-08,3.1752641707407356e-08,-0.5129174985388261,-0.0250576090086691,0.9263038996920872,33.069279279279336,0.0100190549725837,-3.6153036153041794e-05,0.1131221719457013
-0.0728208027133973,34.07510361856992,0.000224607840181,1.1634713553756828e-07,3.0381173970229216e-08,-0.514342680939289,0.0903342874870343,0.9349753299567604,33.06117117117124,0.0136056916242552,-6.440856440856425e-05,0.1175805539853024
0.2351357466063342,42.930550611114114,0.001694576473243,2.0649722048363782e-06,2.35466274077866e-08,-0.5173369216300485,0.0880860971721593,1.4731343620648838,33.059272727272784,0.0113385176928511,5.491062371797123e-05,0.1221719457013574
-0.7126794799321653,30.8834107531998,0.0004207915728529,7.481636280949602e-08,3.84162728553424e-08,-0.5325845652734879,0.5521998140683971,2.8161313021458865,33.065315315315374,0.0141942647864744,6.089856089856629e-05,0.1311475409836065
0.1193325791855193,110.31488208537104,0.0034030261250994,9.254570665142e-05,2.0905937183958283e-08,-0.5387911017615512,-0.4905310181030109,3.648488695503824,33.08200000000004,0.0111844047267142,0.0002286590176498,0.0950226244343891
0.1049773755656084,40.82289868875592,0.004467785652772,1.527061605374068e-05,2.0030956410423444e-08,-0.5290212583138149,0.1109251566549026,1.4367686292559745,33.10207207207212,0.012384029028784,7.335907335906573e-05,0.1221719457013574
-0.0295364612775579,33.028925723333444,0.0020531283978153,1.781360517273646e-05,1.7389098833475605e-08,-0.5251166233193846,0.0438999645244396,1.151272032904172,33.11218181818186,0.0098517943157415,2.0197011022680727e-05,0.1221028829847371
0.1383031674208145,34.05048735132641,0.0002970268193415,1.9821279140328338e-07,3.7400343310894216e-08,-0.5230143771985161,0.0292823916537151,1.1266835328269649,33.1085585585586,0.0106413139172847,9.126009126014416e-06,0.1266968325791855
0.2359016393442624,31.436189210502448,1.4600698639312908e-07,7.860844547412375e-08,3.700182078848721e-08,-0.5214745100914951,0.0073232878068691,1.0039887433967003,33.10709090909095,0.0128873055612136,5.770574577911341e-06,0.1130582249858677
-0.3638574660633477,33.85367290349169,2.5914058078135864e-05,7.438114665930662e-08,3.843910317065792e-08,-0.5185354432892967,0.0881897739421641,1.2136192410290996,33.08837837837843,0.0184312963640279,-0.0002885222885222,0.1221719457013574
-0.0251866515837102,34.53392565298487,6.40575312007593e-05,1.795424813872236e-07,3.4066246035172144e-08,-0.5153389527409858,0.0182885367305038,1.0642946507261095,33.070363636363695,0.0142654874515893,-0.0001747402114374,0.1221719457013574
-0.519841718485021,82.54902796490825,0.3293162553135266,0.049858459676651,1.2880772174085113e-08,1.3909296044357642,0.0479474370195197,1.5985067516420723,32.732909090909104,0.0117043468650411,-2.3082298311644084e-05,0.0723572639909553
-0.5943382352941247,146.0015676898294,0.4321059377073609,0.0444379969594088,1.581746441055769e-08,1.8132627112616904,0.0477929917214076,1.6076981182096948,32.708918918918926,0.0173647334099547,-8.599508599493669e-06,0.1493212669683258
1.5767703619909514,64.35404681915166,0.275699907055405,0.064856465850063,9.688283925124652e-09,2.074671528138709,0.1201801223131656,1.217812627781966,32.69972727272725,0.0186576375250601,-0.0002078759326465,0.1583710407239819
-3.4451102317693625,69.4887469943788,0.661241443539777,0.2534529949441357,1.454455700217696e-08,2.2077939722512525,-0.0828166792452144,1.5073152629102735,32.67207207207204,0.0150145345268479,-0.0002151632151632,0.0271339739966082
3.2466515837104017,86.42000167869463,0.4202220499230296,0.1219519113627396,1.3546950452650596e-08,2.4155971833301546,0.198674924296463,1.1059369966938568,32.645454545454605,0.0162724733347359,-0.0004439735815882,0.0723981900452488
-1.0414641040135668,73.59366074014184,0.4151094642138645,0.1375345526409848,1.5201668061742802e-08,2.675771769376358,-0.0631676158051051,1.4619467054129396,32.61378378378382,0.0168754875300435,-0.0003380133380133,0.1401921989824759
-0.1834728506787348,75.77675104111115,0.2209555946707909,0.0849035219658999,1.4676460539170013e-08,2.8370300229410232,0.079349174258899,1.8183046503516789,32.573090909090965,0.0150602097380954,-0.0002435362802335,0.0814479638009049
0.2184906726964385,51.74888336686508,0.304869050685323,0.0199947089849539,1.5876870019547732e-08,2.8049570478447,0.1301450377326139,1.3664649686802826,32.53936936936943,0.0184673697761516,-0.0002300807300807,0.1492368569813454
0.5449038461538511,96.55087871914328,0.202089556094361,0.0657800143640469,2.6910067636456817e-08,2.791283875092025,-0.0051237880819993,1.277822878775646,32.501272727272664,0.0150217473205344,-0.0003242341590965,0.0769230769230769
0.2042420814479648,56.589693505771415,0.1845106533490128,0.0190463695772352,2.8042250342692812e-08,2.66816777311156,0.1355913366643052,1.5849037373386388,32.482612612612535,0.0116797901770402,-0.0001240786240786,0.0497737556561086
0.3536348219332956,39.7489735647424,0.1389373355622064,0.0220909407855906,1.1517791355535808e-08,2.518414277921815,-0.0049185354703091,1.7190490572072783,32.47145454545447,0.0119724200968395,-6.059103306808933e-05,0.1311475409836065
0.4204468325791839,74.67175535970371,0.2771080249428023,0.0401212929195927,2.147117153563644e-08,2.5927963282566626,0.039874166920446,1.1383950202534563,32.44585585585579,0.0100868720737149,7.950157950158949e-05,0.1538461538461538
-1.533883550028266,72.50144657343229,0.2481548289775916,0.0792267606384831,2.3637498612733617e-08,2.922137696552956,0.0340342312117493,2.7022081412064938,32.44351351351346,0.009362436797671,-9.863109863111404e-05,0.1944601469756924
0.1285859728506808,85.20246526644736,0.3549451706975948,0.0380296906934128,1.5749888892394228e-08,3.0530793156186284,0.1689150000343326,1.9858510165013767,32.427636363636324,0.0163444331767073,-0.0003347834907468,0.1628959276018099
-2.025613340870548,80.86878277532891,0.1872521000588118,0.0441227583629052,3.397362733970478e-08,2.940699883542881,-0.120968464155279,2.8433328157341453,32.404054054054,0.0162402224709814,-6.247806247804301e-05,0.1628038439796495
1.8395644796380013,102.02429348255006,0.1419955538182544,0.0367183594171019,2.3613251609635647e-08,2.7986351150577016,0.0765793671862882,2.556582229239918,32.383090909090875,0.0142538960891052,-0.0002088226675382,0.1085972850678733
0.9055316742081464,87.80111202674837,0.0628464371431629,0.0147170222443618,2.0335936814898605e-08,2.515061108839802,0.1004648043452008,2.885880488821956,32.345855855855845,0.0165746179806478,-0.0003137943137943,0.0452488687782805
-0.3715997738835489,101.64619117297616,0.2133353438208629,0.0137108649316519,2.7951114801085125e-08,2.3309754776968585,0.1373368331240952,3.8729164065612967,32.320909090909055,0.0141771554106311,-0.000351464057886,0.07687959299039
0.3972171945701322,104.07698553878132,0.1137387507087663,0.0177303870604125,1.4398417852591948e-08,2.337892259803599,0.0491465061852155,3.3360782479476185,32.28783783783781,0.0124049834076091,-0.0001744471744471,0.1719457013574661
-0.5653024307518341,117.78888114961352,0.0847083565531983,0.0162917960508906,1.4685568504145305e-08,2.203444338242736,-0.2552268953926406,2.986074037421698,32.2710909090909,0.0188460487561456,-0.0004508261388995,0.0949689089881288
-1.1074377828054276,119.37242395669551,0.1630744790752523,0.02758001393863,1.8733951892947773e-08,2.2392145550269458,0.3134775943200948,3.1584198349401564,32.23954954954956,0.0139100966238703,-0.0001365391365391,0.1266968325791855
0.5644796380090484,127.82146738872906,0.2435070075599872,0.0401964780262454,6.946974520830473e-09,2.1744752823487983,0.3031469823754249,4.135838392616902,32.21290909090909,0.0192280786420391,-0.0004299078060545,0.0904977375565611
-0.5024759751271916,51.3084987475586,0.0004717405788633,2.542372738641656e-07,3.102183938830566e-08,-0.4471886288102564,-0.0287912308716748,1.52694189777774,32.843818181818165,0.0187316852700929,-0.0003797759394089,0.1221028829847371
0.7887104072398202,53.15628205671089,0.0007933861075624,6.742624030016688e-06,2.094071084391648e-08,-0.4432706981986495,0.0987533871466745,1.1382668748656002,32.812522522522485,0.0177301325670193,-0.0003862758862758,0.1131221719457013
-0.2528563348416265,83.66968623943022,0.0017033181304832,8.931720739295194e-07,1.73669251732782e-08,-0.442432937972406,-0.0660754004502022,2.401479242118908,32.78999999999998,0.0129333958136565,-0.0002194621644162,0.1266968325791855
0.6484906726964385,108.63021356818756,0.0018805065331672,1.0443455697870872e-05,2.538742189931076e-08,-0.4402262432739773,0.2452740291074394,3.2923258114937504,32.771801801801786,0.0153163751620562,-5.458055458056504e-05,0.1401921989824759
-0.3351923076923072,75.51324002954307,0.0021423941040437,7.482310186955808e-06,2.261363279146128e-08,-0.4389546092748348,0.0244196636478825,1.0457263470049845,32.77327272727271,0.0119170688059438,9.88210896467573e-05,0.1176470588235294
-0.3993273035613333,90.80906365183208,0.0046847702830368,2.686808150243948e-05,1.4560042243816218e-08,-0.4215873190860242,0.0593357206487986,1.565826354589794,32.77576576576575,0.0105309111323966,-8.424008424006411e-05,0.1311475409836065
0.8300056561085986,57.415714281341344,0.0007257530484405,7.220668525196885e-06,2.5256181700880016e-08,-0.4316482911172778,0.0156403771231726,1.45324415152804,32.76854545454544,0.010688682513963,-0.0001096409169803,0.1357466063348416
-0.9874731486715648,70.57533160456155,0.0021378207505086,8.479037272130879e-06,1.9149355415998122e-08,-0.4322517549013241,0.0455597368764379,1.1408345886226945,32.767837837837824,0.0098094829468949,-2.0007020007026875e-05,0.1266252119841718
-0.0365045248868779,61.7208653748737,0.0002954971331236,7.74663988513562e-07,3.489871301152701e-08,-0.4370064687278384,0.0298347903091798,1.1429061734315986,32.76163636363636,0.0151073295111577,0.000114690169736,0.1266968325791855
0.6650565610859732,58.53710649654416,1.298465627800894e-06,9.383847152290799e-08,3.6708385751625016e-08,-0.4386317046015851,0.0730405566007405,1.0080901440606345,32.75414414414414,0.0107777271558485,-4.8964548964549824e-05,0.1266968325791855
0.0452006783493501,62.88157492807075,4.182100429379274e-05,1.0209729006562734e-07,3.605964885864903e-08,-0.4397623674115665,0.1020229255380813,1.1123649866038492,32.75018181818181,0.0119073558763894,-5.617293690689064e-05,0.1356698699830412
-0.4209162895927593,62.37038629241035,0.0003258787781356,7.218871638957577e-08,2.5249126821839984e-08,-0.4386859626231556,0.0467387681933548,0.9301821268870154,32.74171171171172,0.0124389589867351,-9.389259389259572e-05,0.1221719457013574
0.3512719050310916,58.92014191091901,4.209688490774469e-05,8.055357092980263e-08,3.8993859206720326e-08,-0.4360062079150047,0.1570722011755102,1.083432803709072,32.73720720720722,0.0110013243405227,-6.107406107406751e-05,0.1311475409836065
3.192622950819672,193.02819690226173,0.7055008361667325,0.0559883363000887,3.376189420291968e-08,-1.0355825914809724,0.2006742185328963,3.4539123937091323,34.222162162162185,0.1108639731846201,-0.0033581958581958,0.0904465799886941
-3.711408371040716,228.27078838191895,0.4362499467318956,0.039050273276743,6.529745242683322e-08,-0.9073168734106276,0.0900609356924859,2.462104027322124,33.89709090909088,0.0615163755662665,-0.0017495660798413,0.1312217194570135
0.0160203504804983,141.08596572789278,0.446349305614177,0.0393744455674028,3.781713152657589e-08,-1.0344746237143234,0.0397023562006417,3.1998195366985867,33.761441441441434,0.041216782352239,0.0002439452439452,0.1356698699830412
0.5058088235294154,154.46473783236684,0.2260883172398081,0.0023886453969112,7.216180138679933e-08,-0.7811118777693636,0.1055047204139227,2.4746085548498096,33.80372727272726,0.041183824956122,-0.0011625453643802,0.1583710407239819
-1.1434785067873314,109.1032594280338,0.0020634635264521,4.904602714989624e-05,2.505828142831427e-07,-0.6013742295569527,0.0495107197462017,2.376762218016249,33.853603603603524,0.0752268975376497,0.0022786942786942,0.0723981900452488
0.0598304126625201,128.1772556051396,0.071114407609647,1.033455768484608e-05,7.228171376416741e-08,-0.7454269426478988,0.0442010220657379,2.684311933124476,34.15654545454546,0.0739340782987405,0.0021931790005184,0.1221028829847371
0.1629524886877809,23.63960107813769,0.0185161616356985,0.0004093178919927,1.840453903465315e-07,-0.6860191617003273,-0.0166732818851215,2.3101930046055963,34.500450450450515,0.0861947029934065,0.0026009126009126,0.1312217194570135
0.0656359525155454,36.03504382462121,0.0002984329504569,3.0497152432931726e-06,1.9100557702183138e-07,-0.720641211940927,0.0834245752273748,2.3472820050722256,34.467454545454544,0.0966947997439392,-0.0030070103464598,0.1311475409836065
0.0516289592760183,32.61851489877637,0.0005077986318581,1.80889792729936e-06,2.1620750687364009e-07,-0.7628802708158445,0.115779286449515,1.7587709073626203,34.19918918918921,0.0664293316189665,-0.0020078975078975,0.1266968325791855
-2.845876696832572,177.68423299175828,0.0490388217692217,0.0057340524374698,5.858359099049175e-08,-0.8395297990010082,-0.000422452773393,3.77411204023492,34.11072727272728,0.0358204890812017,0.000859454951198,0.1085972850678733
3.077473148671574,162.5706950317325,0.0048930148348794,3.1078738817565466e-05,1.9387414393152977e-07,-0.836326676913314,0.1100429913186814,2.3756855607698126,34.22423423423424,0.0627529052419532,0.0018315198315198,0.0542679479932165
-0.1453450226244363,95.37746538622666,0.0023618334365583,2.178497283547532e-05,2.231009487880435e-07,-0.8680951879679929,-0.0123823235119009,2.009617315230978,34.38927272727268,0.0245582458253132,0.0005370240966571,0.1221719457013574
0.0724590163934429,94.88752191609676,0.0012183935933339,3.9922291565008006e-05,2.023050358267229e-07,-0.8895854924052399,0.0987412160116666,2.0277376197061425,34.57486486486488,0.0876814963464825,0.00259477009477,0.108535895986433
-1.0626414027149331,121.29149292080368,0.0045166374450969,2.30186570763413e-05,2.0466398230436514e-07,-0.8843672995454346,0.1348122928174843,2.0577944233851864,34.870727272727194,0.0642963181599509,0.0019738971665577,0.1176470588235294
0.8697230073487819,45.01003806365815,0.0018501750022138,3.501227090635173e-06,1.665578073802182e-07,-0.8839317786499165,-0.0415526283476372,1.8299458428942827,35.07540540540545,0.0519144095288342,0.00155265005265,0.1221028829847371
0.0411312217194569,16.86418633141814,4.5873513879378855e-05,7.926153728426596e-07,2.409775245980457e-07,-0.8900992866857954,0.0557157224391463,1.960691580299432,35.28399999999996,0.0932464964001822,0.0028462457453283,0.1266968325791855
-0.0659219457013563,81.58843687999581,0.0014289798866839,8.092071317947371e-07,1.5959265658736802e-07,-0.8860760604793513,0.0067908434909027,2.1622680491507063,35.56063063063068,0.0555606847725536,0.0016533871533871,0.1176470588235294
0.096370830977953,17.424626700706668,0.0004686997835144,1.853782363173723e-05,2.0596731283779145e-07,-0.8829068903612879,0.1153737545432549,4.32644591495343,35.657272727272684,0.0233124660724714,0.0006470256745485,0.1311475409836065
0.1447794117647064,24.079888548963982,3.0075390164430717e-05,5.564376842232497e-07,2.678087395594532e-07,-0.8858213028856299,0.077617404466207,1.9342668723777643,35.63684684684692,0.0206202027227631,-0.0005351000351,0.1266968325791855
-0.4441831543244777,21.137316486360763,7.230507898341195e-05,5.414300569898158e-07,2.079096000803901e-07,-0.8891335468120186,-0.0549503374144106,1.946912545569899,35.62567567567572,0.0164191506304783,9.757809757809748e-05,0.1221028829847371
0.2887386877828044,64.55051158045325,0.0086211716458645,4.538007999512002e-07,1.297297668212646e-07,-0.9250057213331716,0.1524522008453107,2.44769366642532,35.61690909090918,0.03229819737569,-0.0006751572256159,0.1266968325791855
-0.1401187111362349,30.191573872288465,0.0008978829180884,4.085675158850245e-06,2.198661407400189e-07,-0.8935699553135998,0.0531667268161578,1.82400823954912,35.53720720720722,0.0307612477391697,-0.0008116883116883,0.1221028829847371
0.452483031674208,36.19032678687617,0.0002998382774025,1.4151807274561286e-06,2.678522782226787e-07,-0.8787479354662897,0.0686044370532713,1.992960426272525,35.48199999999991,0.0225952529205901,-0.0004039402204539,0.1221719457013574
-3.619140271493212,60.66629969714754,0.017432151896412,4.375797788687591e-06,6.290646321248448e-08,-0.8904803183494732,0.1395748090899324,2.1947675569267298,35.496846846846864,0.0173974204353803,0.0004129519129519,0.1266968325791855
3.1457716223855456,93.46329128028148,0.007410807367994,1.2703207833816157e-06,1.8280744689997828e-07,-0.9078456868839692,-0.1128206035601588,2.44442600105062,35.511454545454605,0.0215253070355607,0.0003931203931203,0.0949689089881288
0.1447228506787376,145.22361325004383,0.0041998695541662,0.0002869215283509,1.4217805209860908e-07,-0.8926605058609678,0.0705669493597086,3.0900856809861166,35.58405405405411,0.0173141809492407,-1.3162513162495889e-05,0.0497737556561086
0.0340079140757488,18.231999653171453,3.3297405300531035e-05,5.891108651153307e-07,3.175829174721512e-07,-0.9163340561681376,0.0336120962067305,1.7089423342157453,35.52854545454548,0.0233875010766767,-0.0005274665825124,0.1266252119841718
0.0180769230769243,132.2333722199306,0.0033605611234986,1.049403993994681e-06,1.4491902628472313e-07,-0.9207271107085512,0.0658062197938611,2.8975959311215265,35.49018018018012,0.0153624077259624,-0.0001597929097929,0.1176470588235294
1.4548076923076942,133.57562810993272,0.0014301606107883,2.1077346379538453e-05,1.6526125493211474e-07,-0.915174930456669,0.0652616562191006,2.009115048620875,35.60945454545455,0.041447367799664,0.0011169668417374,0.1040723981900452
-1.51252119841719,120.024332382685,0.0193979548723097,0.0001390967617074,6.395153558365873e-08,-0.9022938277045024,0.1453170484476382,6.019893385543332,35.527657657657606,0.0534394488520659,-0.001570551070551,0.1175805539853024
0.1149999999999996,32.70915618451765,0.0006997692075676,6.253063754094177e-06,2.00339529250742e-07,-0.8924113580281651,-0.0324511574855722,2.542116142282731,35.331999999999965,0.0514127681347021,-0.0015599486058201,0.1312217194570135
-0.4416676088185415,124.63218964244736,0.000492274815657,2.1534196945596093e-06,2.6331291905843426e-07,-0.914101965393226,0.0533083333013568,2.8783079360780306,35.19162162162158,0.0335454657330056,-0.0009234819234819,0.0859242509892594
0.0493269230769223,124.921026562511,0.0025732262694727,1.5939050721655613e-05,1.30633391764996e-07,-0.9385998337470712,0.063488380133138,2.3425420498041523,35.148545454545506,0.0106886825139608,-0.0001659040191149,0.0723981900452488
-0.4295647258338048,84.06806623181906,0.0055020040909447,2.621357205489896e-06,8.242836478076589e-08,-0.9621078550045362,0.2481440257266813,2.1372114386188485,35.13180180180187,0.0133016423966061,-0.0001672516672516,0.1356698699830412
0.6703846153846158,179.01327166783784,0.1047973036904175,0.0145699523001453,9.632138632961401e-08,-1.1465961684497916,-0.0287331786326792,3.5751144698490336,35.12000000000007,0.0165694132227259,-0.000353537858125,0.0678733031674208
-0.046973981900452,15.08770364591694,0.0062441360717625,1.0911475933862215e-05,1.573026156097433e-07,-0.8884527751451161,-0.0022927231831282,2.2451314641788382,35.12225225225232,0.0168022244711704,0.0003836433836433,0.1312217194570135
0.1763425664217089,74.35851059514981,6.648659029045261e-05,1.03882137983861e-06,2.49350052577102e-07,-0.8685562796303264,0.0090703051534386,1.8855304362631136,35.15654545454542,0.0194672855481075,0.0004811216554335,0.1311475409836065
-0.0488744343891404,16.967201456346647,0.0003194403995025,8.086337488477287e-07,2.2526522925479226e-07,-0.8655989693194407,0.0796877499087202,2.2471639988266823,35.23432432432433,0.0365548242246223,0.00104563004563,0.1312217194570135
-0.4589598643301293,51.90975441405393,3.850283575629337e-05,6.62478091507145e-07,2.1809089554124945e-07,-0.8696247127159868,0.0652981820144471,1.9544804922772765,35.37774774774769,0.0389197530774802,0.0011281151281151,0.1266252119841718
0.6240497737556522,157.7252183584596,0.0115174782147871,6.033072016526701e-07,7.145195555722281e-08,-0.8876631900831756,0.0659969843798469,3.177646281887432,35.4983636363637,0.0306750497584915,0.0008360119919752,0.0814479638009049
-0.2985585076314297,14.673251884736391,0.004492871806811,2.6372867196550285e-05,1.975900983212105e-07,-0.882448814197322,0.0722055806946993,1.8505050321356733,35.46459459459452,0.0377231208233825,-0.0011002106002106,0.1130582249858677
0.1637273755656114,58.38354324656007,0.0011299697373825,6.316982156767169e-06,2.362794296405979e-07,-0.8816413700237341,-0.0676388307140872,3.2012710841458385,35.37163636363633,0.021930770111556,-0.0005017694925951,0.0814479638009049
0.1439083710407231,78.69172865029238,0.002959390907678,2.0421604389704947e-06,1.789564475549003e-07,-0.8753202696073263,-0.1981179778173952,3.889377345749725,35.33396396396394,0.0075072672634243,-4.563004563003866e-05,0.1538461538461538
1.8913114754098377,151.2916368279674,0.1272483119048824,0.0175808734182075,7.824289020097306e-08,0.7524469786970629,0.544246657411656,8.302779001365229,34.179279279279264,0.018390739527858,0.0004201474201474,0.0587902769926512
-2.7100509049773804,208.1660695579669,0.1203704305856031,0.0493642167305919,1.3380720126111732e-07,0.8919431036685228,-0.4130529427945016,6.230938533199207,34.22218181818183,0.0153375248792448,5.337781484570028e-05,0.0995475113122172
-0.0381175805539832,185.3498216441316,0.1897280952489522,0.0526470014047089,9.952430168183355e-08,1.0259862721538195,-0.1891487128682077,6.929987715889497,34.18945945945942,0.0277647075816623,-0.0007144612144612,0.0497456189937817
0.7498812217194591,181.227258926732,0.165744237532171,0.0226178212321846,1.6927429800018625e-07,1.0873816195039907,-0.0806338093591665,4.57681359001633,34.111454545454606,0.0216935836193077,-0.0005765164664246,0.1266968325791855
-1.0730316742081507,199.60771133247368,0.229362380941956,0.0560458612526382,8.753594939657029e-08,1.2225338515389186,-0.0299619887574397,5.9581571921772944,34.05072072072079,0.0225297285769459,-0.0004547209547209,0.1085972850678733
0.4293386093838297,191.5207814973381,0.1378678515763816,0.0376960083984273,1.2930195000111857e-07,1.4948792885090498,0.9848779522825944,6.017795952565362,33.95690909090904,0.0441432678805453,-0.0013333633884092,0.0633126059920859
0.8409954751131212,187.4876940728648,0.1271995537960323,0.0255282516935434,1.436900127393254e-07,1.6215379292584848,-0.2877300542296874,8.609814442677841,33.85108108108105,0.0296936718271577,-0.0006661986661986,0.1085972850678733
-1.3410966647823628,160.1642263902612,0.1431503855322048,0.0272813445620376,1.2005084236884693e-07,1.9868920733847664,0.2549541606126961,4.961043190366955,33.85627272727269,0.024040083607064,0.0004884701214976,0.0994912379875635
0.6807692307692258,109.80131904387488,0.1873575496395493,0.0515627508569022,1.774174954898205e-07,2.1584321961901107,-0.5071570102526188,6.152002025730599,33.87567567567565,0.0198925773481575,-0.0001732186732186,0.1628959276018099
-0.3083936651583722,73.84287904500334,0.1238142566411657,0.031808231751222,1.6998674165162153e-07,2.151197220181249,-0.216127391093742,8.418885765350574,33.826909090909055,0.0179770285008123,-0.0003952843585871,0.1764705882352941
0.252357263990957,99.33677649219888,0.02998997943445,0.0027757345666561,1.581511056693117e-07,2.0500473080328185,0.6080030248596804,4.5820017520425935,33.76027027027026,0.0195194271192088,-0.0004036504036504,0.2080271339739965
0.0476923076923132,80.12118557210694,0.1059595304630409,0.0085577808151814,1.611811966237667e-07,1.9435278305934465,-0.1145508898018237,3.986827826572085,33.666000000000075,0.0501488692884393,-0.001342019250276,0.1493212669683258
-0.2388694177501405,63.37967060039706,0.0864560067536999,0.0258559483770907,1.098710276520709e-07,1.8876158623368244,-0.1742855541807902,5.354456438723791,33.64963963963967,0.0124428732761211,-3.334503334511649e-06,0.1989824759751272
1.176204751131219,195.69980653878488,0.1470149648553489,0.0440124564372882,8.522386760853081e-08,1.858569993690864,0.6904471094365968,4.3701170548709785,33.660727272727215,0.0115765508216234,0.0002600365169172,0.1447963800904977
-1.3911023176936117,221.8918299009565,0.2823994181421908,0.0472218756897774,1.4495224641714496e-07,1.8805432267836903,-0.2956433375586079,4.42874809303842,33.69702702702705,0.0310069621532372,0.0008726746226746,0.1130582249858677
2.105401583710407,218.09068240758515,0.2570672469043947,0.1048341523102977,7.772025017717325e-08,2.0491105367548723,0.1168864895794288,4.047604785863484,33.77599999999997,0.0206353624106335,0.0001715844284651,0.0678733031674208
-2.0067760180995458,130.31186621605102,0.2339641304019421,0.1325929406851606,8.695496196011301e-08,2.2851339162262523,-0.0260398102319395,4.8022696110552365,33.770180180180155,0.0319341095839941,0.0008487188487188,0.0995475113122172
8.145138496325606,203.17106466364245,0.2063620390102293,0.0764633788122703,1.2247933785575897e-07,2.4450358003527786,0.022798876167977,5.767081935905676,33.779818181818165,0.0225219819159306,-0.0005438766539683,0.108535895986433
-7.665458144796378,343.04926684176485,0.2755992002626606,0.0586972064362516,1.2873375791909574e-07,2.501918262601684,0.237733558631514,5.606566133072883,33.745135135135136,0.0147571857509518,-0.0002327132327132,0.0814479638009049
1.3072074618428524,255.8804602620644,0.1792141852307749,0.0750838216817636,1.552757634364671e-07,2.4874970715045284,0.4041240819545064,6.229145386201563,33.69918918918917,0.0203631505701942,-0.0003600386100386,0.1221028829847371
-4.0814592760181085,298.26350183378287,0.3188001868978855,0.0609759559558599,1.6159787365989428e-07,2.5992642409690245,-0.2779315612811902,6.339954375787457,33.65381818181823,0.0094370467435348,-0.0001244280143362,0.1357466063348416
4.294793668739405,255.26960208568192,0.121951325135692,0.0308728126177243,1.1562992972911847e-07,2.7736566949140995,0.0788804134037166,7.535670516601138,33.63936936936943,0.0113327460854156,-8.07300807300709e-06,0.1401921989824759
-2.3293099547511225,245.8438509356084,0.1534647209596653,0.0218393216829119,1.1923258108212284e-07,2.7173349080538376,0.0344657562669239,7.0868470534839725,33.62945454545463,0.0163949195920485,-0.0004397358158825,0.0723981900452488
1.0331995477670992,111.31006570292496,0.0206951214937307,0.0002327886350638,1.291260306419119e-07,-0.0017694156699793,0.0242068989177534,2.6688726591950345,34.46162162162155,0.0197981044019589,-0.000292471042471,0.0814019219898247
-2.501481900452493,148.03007278835958,0.0068586630502875,7.437103435899331e-05,1.681892352280493e-07,-0.1085022464113212,0.0802355756336599,1.966794382460913,34.447454545454484,0.0152813828286917,-0.0002589545341838,0.1312217194570135
7.223267382702093,125.84440984602296,0.0405211592968508,0.0003109517142824,1.3300221729592865e-07,-0.1851406540092533,0.1804459490680901,2.888478488508593,34.43072072072066,0.011367070483308,1.5795015795018258e-05,0.1311475409836065
-6.313167420814482,151.62130290423968,0.0167161076207118,0.0006230575121883,1.403970086912416e-07,-0.1510507468698056,0.023734272481638,2.11954498045114,34.45345454545447,0.0123167560395918,0.0001771746725875,0.0452488687782805
0.2257861990950222,106.83203027460708,0.0106245557587473,0.0001618366971438,2.2118569295223002e-07,-0.1974983148422629,-0.0961149095693936,2.4448933849817096,34.455045045044976,0.0157613893539663,-0.0002228852228852,0.1131221719457013
0.5132786885245905,124.16851695277612,0.0054410505344358,0.0001842477316773,2.2521122433993649e-07,-0.2721889658592714,0.0990166103733244,2.5363754963265333,34.47036363636356,0.0215713308363112,0.000515745102901,0.1401921989824759
-0.4582070135746581,77.11521287892633,0.007401548600071,7.778391202518246e-05,2.096093539015765e-07,-0.3195629958732753,0.044383488944846,1.7538017887208537,34.591711711711724,0.0440898728719284,0.0013144085644085,0.1402714932126696
0.2521198417184853,69.55275437076503,0.0008659756634672,2.4208164887748766e-06,1.8467247948947857e-07,-0.3777828926816483,0.0072134680748232,2.0254189244380485,34.762727272727275,0.0548039330192669,0.0016793273674008,0.1356698699830412
-0.0392138009049803,132.45016070770652,0.0143043035885354,7.691868997281466e-07,1.6664353636366553e-07,-0.42144360908224,0.0528422049330264,2.604259688724519,34.92918918918913,0.0503346483057477,0.0015095647595647,0.1357466063348416
-0.2879524886877844,57.30274450415224,0.0019789768815535,6.550671248825804e-06,2.254244696238037e-07,-0.4403321588770212,0.0105012056068481,1.9115662324179847,34.9990909090908,0.015756410213304,-0.0003328900209634,0.085972850678733
-0.5994234030525719,93.11171604834388,0.0034252595541293,1.408222763323425e-06,1.970994571080411e-07,-0.4772523607952362,0.092323799437025,2.15808770515628,34.94873873873868,0.0168253946377352,-0.0002744822744822,0.108535895986433
0.9459219457013568,60.563173571415646,0.0029813341033454,1.968992828016617e-05,2.0113248265297185e-07,-0.5033078322945016,0.0332267192437845,1.8403121837188432,34.899272727272695,0.0217719206531164,-0.0005473930978517,0.1402714932126696
0.2308309779536453,65.68472161237179,0.002107321437364,2.0427817266736734e-06,2.219900346827964e-07,-0.531586561812598,-0.1269225632438071,5.6897230868897175,34.85630630630628,0.0189797392176757,0.0001147771147771,0.1356698699830412
-0.1738461538461542,37.90370691471724,0.0401621517870101,0.0086492434758137,2.110811446913673e-08,-0.2969378893611425,-0.3027535283577231,2.6444262717348,31.384954954954893,0.048059157874734,0.0014433134433134,0.1402714932126696
0.1829112492933848,54.85401825753315,0.0232281064044232,0.0003872727278367,2.450965402441845e-08,-0.3856468221033293,0.1727078595937306,2.5140756579848027,31.50454545454553,0.033995624414605,0.0010228343439352,0.1221028829847371
-0.3593834841628956,32.95041666312817,0.0073060119860581,0.0001559990398652,3.2875509190265075e-08,-0.4408328004653565,0.053489695708113,2.4385395481085257,31.60531531531535,0.0226138688140351,0.0005917865917865,0.1402714932126696
0.2876879592990387,19.36448972818216,0.0031336465373872,5.706899390806723e-05,3.01177891773138e-08,-0.5444886340082871,-0.0118150884132154,2.7684987173922933,31.689272727272755,0.0287847526213286,0.0007866014471519,0.1492368569813454
-0.1414932126696832,51.99113170580985,0.021357803611504,0.0019296621366984,2.0186802248307123e-08,-0.6363385686685287,-0.0095629528144063,2.555949411675714,31.819369369369305,0.0483097975491721,0.0014671814671814,0.085972850678733
-0.0871040723981895,17.1993044978827,0.0029957887866609,1.4363175778175064e-05,3.66826675339098e-08,-0.7115252040847472,0.0259164323630247,1.8115907450253448,31.96672727272727,0.0400024792620084,0.001163852760183,0.1357466063348416
-0.0876823063877897,29.245003708097443,0.0008118374594726,9.987777054960144e-07,3.389594505094103e-08,-0.7802330490256678,0.1464772749533883,1.7888425224438589,32.07090090090094,0.0260128017530655,0.0006161811161811,0.1401921989824759
-0.2347567873303167,26.68662441308909,0.0003622618326348,3.310115194483205e-07,2.603246305736872e-08,-0.8571632506147011,0.0635422615979797,2.403286538354356,32.148363636363605,0.037815996440353,0.0011017289182426,0.1402714932126696
0.2439457320520069,19.39719065895957,0.0011335965740414,8.574185038695717e-06,3.802221868996653e-08,-0.9149852889326152,0.0582023165413591,1.9823869532566485,32.25234234234234,0.0247129449594242,0.0006981396981397,0.1311475409836065
0.0711764705882352,19.519674573324632,2.0643700606773102e-05,2.0258943178685347e-07,6.426397441963604e-08,-0.9479523324020545,-0.0682934741966974,2.4290634855665654,32.36801801801794,0.0456350548800975,0.0013667953667953,0.1402714932126696
-0.0377444884115324,16.484078113770487,1.7995634988775921e-07,1.1247496290212627e-07,7.805410909011175e-08,-0.9775110217432468,0.1678174890978039,1.7890273479139955,32.520000000000074,0.046807147861294,0.0013810607939048,0.1356698699830412
-0.0908144796380087,17.82149081783302,1.694184152501273e-07,1.0615204512283427e-07,6.063356013883871e-08,-1.005174585921411,-0.0666782970987566,1.6303335636328993,32.699009009009025,0.0577187176684327,0.0017334152334152,0.1312217194570135
0.2128337104072399,20.87823098933051,0.0003384981609713,9.978808519789941e-08,4.0945352671812377e-08,-1.0323536769256518,0.1577654812824342,1.6605165916551112,32.86818181818173,0.0494732584916841,0.0015003493902576,0.1266968325791855
-0.0004013566986993,24.431185730273786,0.0004052129166135,9.585275200074752e-07,8.03637675867241e-08,-1.0495632852386114,-0.0695607344424536,2.221796782193359,33.019909909909984,0.0438156559188094,0.0013015093015093,0.1401921989824759
-0.3377771493212667,18.87863553079605,8.056660210599305e-07,1.2044166864393e-07,7.986772290126474e-08,-1.0726994215388916,0.093270866765612,2.1875813611567,33.17963636363639,0.0412735282261084,0.0012521245181795,0.1357466063348416
0.2357094403617859,19.51305084475548,1.8320743717776408e-07,9.863196348933073e-08,6.317003387107937e-08,-1.0906911681102447,0.1319297527825619,2.0059246715984744,33.295945945945924,0.0332984965269003,0.0009602492102491,0.1356698699830412
0.382884615384616,33.40695264469337,0.0045128349597599,1.7733652295948126e-07,3.110624291060223e-08,-1.0931929323191991,0.0868242611104558,1.9169193466353285,33.423999999999964,0.0517546660171371,0.001567792980637,0.1402714932126696
-1.0236800452232897,45.95632022530302,0.0003625174254112,9.468976990566808e-07,4.798599108482343e-08,-1.0916271823879309,0.1465307619711961,2.4338822220868424,33.56207207207213,0.0316261129738174,0.0008674973674973,0.1311475409836065
0.9561142533936658,48.9647675670855,0.0025775268273856,8.879921113484724e-07,6.639702945041245e-08,-1.0943228452044762,-0.1552747060416612,2.0022493596109228,33.64754545454543,0.0254839116319702,0.0007083831120528,0.1357466063348416
-0.4750452488687787,31.418280114247484,3.2975631155333835e-06,1.040431368918256e-07,5.1200081773291785e-08,-1.0995866762015671,0.0323838472230748,2.023609998317508,33.68018018018014,0.0145801285219067,0.0001530361530361,0.1357466063348416
-0.107111362351612,41.262441783589,0.0046126544404741,1.0666728721584685e-07,2.7245801526277032e-08,-1.1176301177411556,0.1052341270851106,2.0698591521399057,33.74527272727272,0.0268229579722339,0.0006939115929942,0.0542679479932165
0.1599886877828048,34.6712237795396,0.003730573677518,1.5146740204610124e-06,3.01190902584396e-08,-1.1267797563134236,0.0589617342796812,2.4107145723171346,33.849639639639555,0.0382483098119861,0.001066339066339,0.1402714932126696
0.2204409270774444,25.291877751364776,0.00014456624555,1.1279405172999905e-07,7.601095254088926e-08,-1.1387959232348883,0.0079459940892243,1.6638489207620637,33.90381818181814,0.014205109079726,0.0001745598809818,0.1447145279819106
-0.0185407239818987,29.484849355824608,1.4638854769784007e-05,9.996784632560536e-08,6.118629038209685e-08,-1.1472891837043142,0.065304272449578,2.075221222172936,33.872882882882855,0.0154446053083403,-0.0003024745524745,0.1402714932126696
-0.4866346153846168,44.17325055290228,0.0010766373135549,1.1626737304136405e-07,4.2831033074191664e-08,-1.1500236701440325,0.195322203397036,2.389814616032049,33.845090909090914,0.0177735991415988,-0.0003945630367648,0.1357466063348416
0.196653476540415,68.67311075487282,0.0059357735356183,5.92323543194148e-07,2.1931985031341668e-08,-1.1549918803516357,0.3352974134422904,5.947726314175223,33.85846846846841,0.0292918891764971,0.0007871182871182,0.185415488976823
-0.0855542986425345,64.6715157854784,0.0010439133965785,1.1396883142223068e-06,3.893970204892167e-08,-1.150273484776314,-0.2765146286457256,3.4602273133518007,33.94836363636355,0.0238376048494541,0.0006151973491423,0.1221719457013574
-0.1363199547767106,71.90621258981997,0.0004067848459508,1.270454536721236e-07,3.6569018373080936e-08,-1.1574819291376957,0.0164854404487724,2.425696638312784,33.99846846846852,0.021485306028351,0.000506318006318,0.1447145279819106
0.2843382352941188,15.580106997845991,0.000107177672626,1.615239546595918e-07,6.673653188607086e-08,-1.1650637817362928,0.1744161709470561,1.928742443415904,34.03936936936944,0.0099800954408097,2.2815022815018278e-05,0.1357466063348416
0.1108253250423966,11.784364121947146,1.5497834093764468e-07,1.2516780050507446e-07,7.722366823986687e-08,-1.1745582165578992,-0.1607029534540047,1.906112388465796,34.032909090909165,0.0180577585715413,1.1541149155839086e-05,0.1266252119841718
-0.1593156108597286,13.184384563096964,1.567837855122415e-07,1.1660134921184792e-07,7.908743572831988e-08,-1.179644957167695,0.1131150922551924,2.1989695508062823,34.025675675675714,0.018089946519655,-0.0002351702351702,0.1402714932126696
-0.0800226244343891,28.359191659551893,1.807900936237145e-07,9.441909346188e-08,5.3315864628502075e-08,-1.1834287551996543,0.1791806418724876,4.948219018957326,34.00854545454547,0.0179309972159111,1.983635011157706e-05,0.1493212669683258
0.369496890898813,18.804664111373203,1.9914390807898827e-07,1.0066588153774449e-07,6.618919488938246e-08,-1.1969799342223273,-0.0293317125620411,2.4769795929893963,34.01315315315316,0.017958008175329,-5.76518076518036e-05,0.1356698699830412
-0.1666289592760187,20.444393822004265,1.451182351918139e-07,1.2858729340493028e-07,8.507790751715866e-08,-1.2039147055292871,0.1563943045029114,1.8251900630761533,34.00872727272729,0.0151423002281144,0.0001240673534251,0.1402714932126696
0.1652741661955907,19.915966547260627,1.4841467932337386e-07,1.1062541312583913e-07,7.575914939028932e-08,-1.2070744464023455,-0.2300455335771492,4.522017832654231,34.002702702702656,0.0170291718940795,-0.000257371007371,0.1447145279819106
0.2002488687782797,19.650430315635543,1.7391580592524565e-07,1.2496925505171553e-07,8.366285437354734e-08,-1.2087262074402572,0.3620284578198916,3.2057187355467702,33.97727272727264,0.017104443383843,-0.0002095439893605,0.167420814479638
-0.4065799886941765,17.798999838659576,1.527376194641865e-07,1.1691999030961529e-07,7.18392764659158e-08,-1.2091552466057531,-0.1013799877795891,2.1492052209599044,33.95648648648642,0.0152249586841634,-0.0001751491751491,0.1537591859807801
-0.0661142533936648,16.470039256247418,1.4574378555940446e-07,1.2610142187311994e-07,8.719052198694954e-08,-1.2118320833188418,0.1019206168843627,1.7592431570115947,33.951272727272666,0.013287662829522,-9.927191578568252e-05,0.1447963800904977
0.1893212669683258,24.43878671822269,1.56386276984345e-07,1.1386110885174565e-07,7.73370430706613e-08,-1.2149068260183622,0.1113188733286912,1.6968112971580311,33.94657657657651,0.0169522644848136,-3.861003860984762e-06,0.1402714932126696
0.4417015262860371,20.511175841819085,1.4571076790303617e-07,1.2577453515036117e-07,8.313643592827832e-08,-1.217914626351699,0.0289058631063462,1.7807827589083842,33.961272727272664,0.0150217473205333,0.0002391181840722,0.1492368569813454
-1.4104694570135747,57.37842262738855,0.000337385123355,1.0022892755090185e-07,6.408688744891245e-08,-1.2166353244924726,-0.0301900462416959,2.4239793467143858,34.00801801801809,0.0217197473074334,0.000576869076869,0.1176470588235294
0.8811701526286049,20.08932004340986,6.678830179808692e-07,1.0782137860284153e-07,6.560687676531748e-08,-1.2167127642869813,0.093374779426437,2.0582743399821464,34.092909090909124,0.0282632255299247,0.0007968802831188,0.1356698699830412
0.4039762443438905,18.598021073919448,0.3943244614338164,0.0293783613643679,2.310594129385692e-08,1.5760007719643991,-0.07296127684575,3.73558471752661,33.47693693693686,0.0156994745303005,-0.0003355563355563,0.0950226244343891
-0.4339231204070082,34.36779986548256,0.1683523310360275,0.0301727468373986,2.0514726365343112e-08,1.726322200883034,0.0258166308881553,3.610664686684078,33.438363636363576,0.0200693014204329,-0.0005013186664563,0.0859242509892594
0.4499264705882345,54.349291280759424,0.3173832873512442,0.0843700227491687,1.81547428056264e-08,1.5240655941090002,-0.1554949727453083,5.209628943844956,33.38099099099099,0.0298632002579841,-0.0008538083538083,0.085972850678733
-1.0178349349915172,76.67702204119294,0.2901013684938373,0.1659152745609559,2.324321570851388e-08,1.9069755595364952,0.1624371900558964,4.137768668526141,33.3123636363636,0.0144554030620364,-0.0002799630322565,0.0633126059920859
1.348388009049776,73.14456852183474,0.7662496175137322,0.2917161343605191,1.285429344152684e-08,1.4206384753792811,0.0575310699647482,3.9876746071034703,33.26369369369369,0.0219716413427314,-0.000497191997192,0.0814479638009049
-0.5315610859728521,50.883035728409325,0.2539979029631751,0.0417448384680196,3.026483737568201e-08,1.937986794336564,0.2683760818830136,4.493014746833486,33.20563636363632,0.028269073134218,-0.0007397155287063,0.0633484162895927
0.1778801582815141,40.528026935668095,0.2098971839208874,0.0862722004282448,1.8924566578244256e-08,2.0696741485010453,-0.2425512401212791,3.5168920761849845,33.1523423423424,0.0212643149433243,-0.0005282555282554,0.1175805539853024
-0.0795984162895922,45.59889047019111,0.201362258138542,0.0298883973254534,2.5497457282337333e-08,2.0842264896293594,0.2183264333081829,3.811125135080612,33.09963636363641,0.0193966854116541,-0.0004478506863828,0.1131221719457013
0.0949689089881295,36.45129587797011,0.2726661534917843,0.0216605274496087,1.2386146136965971e-08,1.9350441272523176,0.1250179362955291,3.7792957149712936,33.06099099099106,0.0213488803831154,-0.000466654966655,0.1221028829847371
-0.2810350678733032,29.089347012586583,0.1658765768652028,0.0293008924712573,1.5411883416202207e-08,1.967690406214912,-0.0787670792415618,4.466253160533563,33.00729729729723,0.0223786395075501,-0.0004745524745524,0.0678733031674208
-0.2053759185980779,60.57213128118554,0.521143874535066,0.2187949296047786,1.4948632390678107e-08,1.6819231087223914,0.1284028559138859,4.260157978875674,32.98054545454537,0.0177270396255072,-0.0002403804972612,0.1130582249858677
0.1482975113122168,15.6522511604198,0.0862467612952567,0.0227669498966224,3.6313167484204114e-08,2.149106034422012,-0.0105981649783271,2.4861929845403123,32.92549549549545,0.0215915707083908,-0.0006002106002106,0.1493212669683258
-0.2330429864253392,13.915127588639193,0.0545152994172996,0.0103686661930377,2.4163611589754613e-08,2.110656311351093,0.0919428424916066,2.101672905247153,32.86181818181819,0.0226507803671218,-0.0005193517120122,0.1583710407239819
-0.0473261729790842,32.697270743987104,0.0678776328522178,0.0044514855907267,3.0976385029736964e-08,2.062590091192081,0.0133702555532083,3.7314190300030767,32.82495495495492,0.0120713997392443,-0.0002519305019305,0.0542679479932165
0.2858597285067868,30.15653874201873,0.0568172287872729,0.0026728092702388,6.85620126047107e-08,1.9769639746686,-0.0537448283891596,3.0201677298875227,32.782545454545435,0.0170259888852497,-0.0003189144106575,0.1583710407239819
0.3496269078575466,25.770572941014983,0.0781644796624499,0.0090513870835211,3.4139877644827115e-08,1.948802488670036,-6.082373263978648e-05,4.465495488758231,32.75216216216216,0.0170534615336616,-0.0003820638820639,0.1537591859807801
-0.2450509049773761,20.485925835811013,0.198031922006377,0.0153847960185921,1.862361831654693e-08,1.9436974521726125,0.059847791788312,3.6172490872077807,32.71763636363636,0.0210595377971925,-0.0004652525753443,0.1628959276018099
-0.2593725268513277,38.640554513869816,0.1903754017633921,0.0153505515164792,1.7466775695657692e-08,1.8885812283261505,0.2021852662306686,3.204268389994556,32.6618018018018,0.0139625108223854,-0.0002188487188487,0.0633126059920859
0.0068891402714914,35.63552855685143,0.1820112447429262,0.0121362009246714,2.749076064816793e-08,1.9597122046886648,-0.1240571422101595,3.831177651476792,32.61354545454552,0.0262015392898386,-0.000703784685436,0.0452488687782805
-0.7220588235294118,53.016648778325504,0.1715454240577957,0.0662726942209943,1.7264257671970392e-08,1.9760115229531672,0.4276065208152255,3.3264388689836246,32.55756756756764,0.0186100920125056,-0.0004292734292734,0.0633484162895927
0.8557320520067828,38.85895453249339,0.2684071912225097,0.0504484226920315,1.9579324349646813e-08,1.7117159124466177,-0.2149752023258153,5.123863191517778,32.50127272727267,0.0244246183894661,-0.000645222369993,0.0904465799886941
0.616266968325792,25.508523295657596,0.0371485890405913,0.0156223383411364,3.4366702017788873e-08,1.89910376507148,0.0839544995484477,3.660159431914297,32.44819819819814,0.0173048031762782,-0.0003653913653913,0.1131221719457013
-1.0421141888072316,39.58988732851528,0.0648794791733803,0.0069141174499861,2.31968691391569e-08,1.7006854927360189,-0.2694336398237956,3.8372321492515375,32.40872727272723,0.0150821442235565,-0.0003362261343912,0.0587902769926512
0.0066628959276019,8.798078760833869,0.0187925039963556,0.0003071393635128,3.268499209970223e-08,-0.4298581500152331,0.0970847257961132,2.80894495848683,32.41504504504499,0.0174951150903622,0.0002404352404352,0.1357466063348416
0.0542962125494629,5.401299842969288,0.0011058688473843,3.1303115290293303e-06,4.4833083523021886e-08,-0.4974116933053215,0.0159214154486017,1.4430596652211345,32.42890909090904,0.0096620583677007,-5.049252755675563e-06,0.1266252119841718
0.1302432126696841,32.116100325390235,0.0170867410514543,1.5631541168118913e-05,1.8712543963218693e-08,-0.5696613898328726,0.2210355856386192,2.516158844389216,32.40927927927924,0.015169416345837,-0.0001288171288171,0.085972850678733
-0.4191690220463531,35.32621939995183,0.0121511600627195,8.798925739406441e-05,4.553820290259057e-08,-0.4903321730821085,-0.2007268021342291,3.1748176769611067,32.39854545454541,0.0136072416305936,9.945224624121368e-05,0.1356698699830412
0.2417760180995478,7.878475991575531,0.0063019314629673,8.889324806371666e-06,4.051258429996924e-08,-0.496958899750024,0.221885338395592,2.4467585777086565,32.39648648648645,0.0131962763413327,-0.0002530712530712,0.1266968325791855
0.0304694570135749,9.928371126717444,0.0034823265046066,1.7342966990351772e-05,3.980546652269198e-08,-0.5211282695592525,0.0135478356079063,2.533706999171033,32.37545454545451,0.0137269717004924,-0.0001197394224917,0.1447963800904977
-0.070452232899943,14.326036850695724,0.0199672931526549,3.907830437689911e-05,3.4526870213249895e-08,-0.5138212902435799,0.0858175533903309,2.8502601068627023,32.345045045045055,0.0135483035654812,-0.0001870831870831,0.0814019219898247
0.0836538461538465,13.55525901842705,0.0060533919930419,0.0002253534350135,3.85986095500746e-08,-0.532730480035712,-0.017659393711305,2.3771167607207584,32.33300000000001,0.0092980936462568,-7.271825620448888e-05,0.1357466063348416
0.2860373092142442,66.22440888208469,0.0354282294089815,0.0002682147720392,1.7205333271997878e-08,-0.6111647419316732,0.1444062702461773,2.158367365824346,32.31990990990986,0.0110278513499802,-0.0001747981747981,0.0994912379875635
-0.3852205882352917,158.30891072590558,0.0185957530188655,0.0010032476829445,1.749749339627144e-08,-0.6246554684192777,-0.0141020146075938,2.41669463960236,32.326306306306314,0.0128699613898585,0.0002797472797472,0.1628959276018099
0.0787450537026563,32.614126625122346,0.0061810265709108,0.000100778706454,2.9635346713756397e-08,-0.6099231764063936,0.1138519780982595,2.508277079446588,32.339909090909096,0.0109954911871306,0.0001214976444333,0.1040135669869982
0.1038744343891406,22.24189456004097,0.0005308877490863,6.481404345407146e-07,5.467720271022533e-08,-0.6418842001306381,-0.0048145293597813,1.5365440410983258,32.341171171171176,0.0122097833125021,-8.28360828360893e-05,0.1266968325791855
0.5138574660633479,27.91805312356957,0.009037799855405,1.941739644031315e-05,1.7749703571617506e-08,-0.6911262173682157,-0.172052116184986,3.958331257273007,32.33672727272729,0.0132190696213041,-1.9836350111573208e-05,0.1312217194570135
0.1020871040723987,61.381019394985046,0.3932545839017113,0.1181944682948614,2.6897575816905296e-08,0.3825807100891033,0.2026366871958686,3.0937751828871733,33.07918918918925,0.0185576838768779,-0.0004433134433134,0.1131221719457013
0.1466252119841714,14.456048711474054,0.1310553555873121,0.0125453521121628,1.6741123688514583e-08,0.4047192803320272,0.3394411155180381,3.1526604651156567,33.0190909090909,0.0219315237851172,-0.0004778757072334,0.1311475409836065
0.0138348416289595,45.626341992287294,0.1913521496430674,0.0118043089935689,4.0002327659409655e-08,0.1149535919853606,-0.319708273094393,3.1989024505258112,32.978108108108025,0.0150383002629661,-0.0002390312390312,0.0904977375565611
0.0216336913510457,12.71283512089199,0.0035629764777903,0.0001583066863495,6.368484129622756e-08,0.1652124076061898,0.1305425261386109,2.2404133924509657,32.9686363636363,0.0195158337919499,0.0004876586344476,0.1447145279819106
0.1439536199095024,13.280579982603154,0.017347839333693,0.0001790218195958,4.939189643958948e-08,0.0435224406326888,-0.027535949369402,2.2608551738016405,33.08288288288289,0.0532779113060038,0.0016051246051245,0.167420814479638
-0.1471153846153844,17.615860463486847,0.1141544257341735,0.0023173322673315,1.5524282992274902e-08,-0.2485819855721475,0.0089976524027214,1.9174893921443807,33.20963636363638,0.0587433133173835,0.0017026801613958,0.1447963800904977
0.0168852459016395,12.890914240185843,0.0112335138137697,4.578399110702611e-05,5.3675498167780964e-08,-0.4942817575559783,0.0900610145818927,2.055751434878176,33.50135135135143,0.0810125836792667,0.00248946998947,0.1401921989824759
-0.0183597285067873,13.939148677790389,0.0070746865979222,0.0002019656169912,4.4690651328803537e-08,-0.6278908437773807,0.1171098254900685,2.292678998951871,33.69800000000001,0.0395612298733357,0.0011589838378829,0.1357466063348416
0.0521141888072356,13.695509711559884,0.0461187435244567,0.0023544220353961,3.4112079099552566e-08,-0.5583805371793324,0.0384446223880916,1.9854333083643287,33.781711711711694,0.0263679396467416,-0.0002372762372762,0.1447145279819106
-0.0858257918552033,9.756150055776514,0.0186351140954245,0.0001352320817919,4.115701656855393e-08,-0.3032788699928803,0.0282887946041968,2.0253735294204342,33.83690909090901,0.0669293447605952,0.0020756035434934,0.1312217194570135
0.2088694177501418,18.933855183152,0.0226730323615872,0.0001493149839475,2.789578889756373e-08,-0.2767996092462458,0.0994974498652139,2.040657168830609,34.02171171171178,0.0583230190192557,0.0017772902772902,0.1401921989824759
-0.2159841628959296,32.93746520761604,0.0079118101821032,0.0005620183658143,6.232071163218647e-08,-0.3246497347384854,0.1214554484634312,1.9028009814031388,33.98145454545447,0.0573004262023872,-0.0017310822081464,0.1583710407239819
0.1360067873303167,22.346539608416837,0.0257071747566463,0.0001421581859364,2.170135699951401e-08,-0.3962409242260153,-0.0431019967858204,1.731121125271491,33.87954954954953,0.0841854172750782,0.0017748332748332,0.1357466063348416
-0.0968795929903897,12.939138749334733,0.0036671433133845,0.0002677326070188,4.904829555902544e-08,-0.4547895774851576,0.0361231180684814,1.8590261862930155,34.25145454545452,0.1004248824982799,0.0031319793521628,0.1401921989824759
-0.0446945701357466,19.98056899465456,0.0142671933912073,7.801087955689153e-05,5.3766032206836026e-08,-0.4801175216871823,0.0711927466694993,2.4065719519846414,34.49414414414418,0.042837814154842,0.0012067392067391,0.167420814479638
-0.0991577162238559,40.24172469551666,0.0417511683249107,0.0013246830008713,3.0919757985579725e-08,-0.4708386372755205,0.0761852300892534,1.8000602925657203,34.41454545454545,0.1136872613287424,-0.0035324031287334,0.1492368569813454
0.2443891402714934,16.28618261238233,0.0112973859726547,0.0004660812009377,5.830386386958988e-08,-0.486603199515589,0.1647206118956954,2.2287685558160537,34.220450450450464,0.0196998828087875,-0.0003499473499473,0.1357466063348416
0.0098529411764701,10.596967773682875,0.0111510267253568,0.0001330130041391,6.50616698792183e-08,-0.5180596309530169,-0.027146633772603,1.4894759232989088,34.265636363636354,0.0440563125747714,0.0013088384464531,0.1357466063348416
-0.3036743923120413,48.70131951389845,0.1243272126451338,0.0562149264449892,1.6730293093797274e-08,-0.7232785218802847,0.2454632847943433,1.8935335185208624,34.403153153153106,0.0220557026999634,-0.0001551421551421,0.1492368569813454
-0.1958880090497735,45.15529602943111,0.0441377833048882,0.0034440557696106,3.2902889825474167e-08,-0.6148558850632021,-0.1177238097933118,2.588107074828027,34.23486486486486,0.0775627019222911,-0.0023932958932958,0.0950226244343891
0.3976653476540429,25.19831694714637,0.0230075621575419,0.0011673552609817,4.66733302518628e-08,-0.536935331783621,0.0129639353514716,2.1159962913002643,33.980909090909016,0.0732932522572602,-0.002243310867164,0.1401921989824759
0.2469796380090498,30.00485050598424,0.0653135416942063,0.0002756339265766,1.9550070322171128e-08,-0.5233952410473427,-0.0142337531059362,2.8269563438355805,33.82855855855852,0.0311013121257001,-0.0008706563706563,0.1266968325791855
-0.1891577162238554,20.78295923312133,0.0501146529788786,0.0015742079673498,2.487277968685841e-08,-0.5087121500135983,0.2155424464877478,2.536363430206253,33.76854545454545,0.0154234982257808,-0.0002360525663277,0.1447145279819106
-0.1065158371040732,14.13240959577598,0.0519989529428927,0.0010263364505686,3.0892959973960524e-08,-0.5486112875885406,0.1246467073238704,2.4508337996064604,33.805135135135096,0.0485253693260013,0.0013553878553878,0.1493212669683258
0.2099547511312216,13.562341710325544,0.0318050902169077,0.0010939827429654,2.5008736520104323e-08,-0.5210394698426376,-0.0900229109984102,1.9020775697021703,34.06872727272726,0.0900112022413074,0.002773843067421,0.1357466063348416
-0.0673035613340872,14.016582903495143,0.0031173612025742,0.0001417400889695,5.594024198813e-08,-0.4868881122061381,0.1250756044518971,1.877297657513592,34.255945945945925,0.0623182529097762,0.0018679361179361,0.1537591859807801
0.0940101809954756,20.89324106524173,0.0638022635828293,0.0003745397389105,1.6990261564982023e-08,-0.542727671644081,0.0598861320400149,2.94505088481372,34.37436363636364,0.0589842393853444,-0.0015616617451479,0.1628959276018099
-0.2124250989259468,10.383443475798735,0.0594787617563513,0.0009102543867075,4.741381957877318e-08,-1.0779555260071978,0.0907978416413682,1.9426313299416025,34.11054054054059,0.0829396593627151,-0.002524921024921,0.1311475409836065
0.0163461538461534,13.4881936390639,0.0546247571817172,0.0030799960093279,1.9304127559204305e-08,-1.1070163859682394,0.1337245656765797,2.4202449671824744,33.990727272727234,0.0142515766852844,0.0001565268354259,0.1357466063348416
0.0452741661955906,7.471015804944665,0.0185552217420466,0.0004803433281032,2.1949380133698283e-08,-0.9483434517199284,0.0041059569555161,1.6811171332477932,33.97864864864862,0.0230348927055805,0.0004004914004913,0.1401921989824759
-0.2541685520361991,8.202264792420683,0.0461143246830015,0.0057815702698324,2.3188010363716376e-08,-0.9401707674905674,0.1013224774020347,1.6987378984241897,34.13927272727271,0.0569003769105443,0.0017229673376462,0.1402714932126696
0.4683540723981897,31.46154828216952,0.0310393885879289,0.0043683350352809,3.91305009381118e-08,-0.9887779731650528,0.0182569837370511,2.011086082958037,34.298828828828825,0.0391977830486077,0.0010721305721306,0.0814479638009049
-0.2498586772187679,17.82423986527413,0.0292337644046738,0.003549106607877,4.308819353240541e-08,-0.8571328769649917,0.0324051047695391,2.188166618661908,34.2710909090909,0.0220472820235986,-0.000328922750941,0.1401921989824759
0.003472850678733,13.242570432122124,0.0203971250498207,0.0013659895037313,2.8107291605961585e-08,-0.8375365809532838,0.007374042723385,1.8701609975275504,34.17135135135141,0.0329751882286422,-0.0009090031590031,0.1312217194570135
-0.0097682306387788,11.666611043084636,0.029084451599574,0.0064083884133305,2.5718260425846664e-08,-0.8371458704913087,0.0799143673696745,2.4189507599303446,34.15718181818184,0.0113723602876615,-0.0001623424926176,0.1582815149802148
0.0253902714932123,11.274211792605325,0.0188215017326113,0.0008907808937409,4.8991796676931196e-08,-0.8123779309911483,-0.0008307413928407,2.0041883642149187,34.14765765765766,0.0128718531502807,0.0002438574938574,0.167420814479638
-0.0622002262443437,9.688464462021576,0.0410700853682606,0.0028227266578609,2.6273567878845048e-08,-0.7989395891775178,0.1717001116518619,2.1982725707006687,34.24436363636362,0.0430966624467558,0.0012565426143407,0.1583710407239819
0.1278292820802713,16.03417587072299,0.0428986393251926,0.0004698775289207,2.1894563797856453e-08,-0.926591439810852,0.0003888458860979,2.1734800543910926,34.34783783783781,0.0404346966654145,-0.0009847314847314,0.1492368569813454
0.0335803167420814,9.347995037428817,0.0049339833951369,0.0001837795176514,5.649210922329029e-08,-0.9811242412977907,0.0861182452197258,2.308807137924915,34.31684684684682,0.01869537602329,0.0003929448929448,0.1402714932126696
7.348784624072961e-05,10.22163139540454,0.0021287812172955,2.4492537695808117e-05,6.046237086235279e-08,-1.0023692275492233,0.0054896454130393,1.8065329679882711,34.31509090909088,0.0172545358750811,-0.0001770845073597,0.1401921989824759
-0.0695361990950222,17.926831526675166,0.0420048374191763,6.338609462643618e-05,2.5614328700139053e-08,-1.0435479138549857,0.1382283154203474,1.955079348332276,34.31396396396392,0.0246517831630046,-0.0004104949104949,0.1628959276018099
-0.0977218767665347,8.45609390275645,0.0104130051898756,0.0001562186195163,4.3057170845574185e-08,-1.223809660598394,0.0085485825327348,1.8091653560067409,34.11345454545462,0.0511581569722109,-0.0015426368820864,0.1266252119841718
0.2571097285067845,52.144260117448255,1.0206018098449314,0.6107283760621554,2.20968008783046e-08,-0.0316460952142408,0.0729650633415108,6.883946437229872,33.185045045045,0.0174951150903628,-0.0003618813618813,0.1945701357466064
-0.0714019219898241,83.32393742738068,0.6729710661722252,0.3684396509327355,2.8910867402792106e-08,0.3873476300175605,-0.0282638279200031,5.396158837977088,33.15381818181818,0.0088401787499209,-6.491896400152682e-05,0.07687959299039
0.1218891402714946,68.16789719652394,1.118527024965888,0.8236584329586416,2.5544415989137504e-08,-0.0052548744140531,0.0448583786215055,4.180343838771607,33.1251351351352,0.01475718575095,-0.0002579852579852,0.1719457013574661
0.0201582815149811,55.343365829137326,1.6643958484836825,0.4686701308337338,9.769432938026572e-09,-0.4776110284742738,0.3278298089782958,6.985098479169728,33.100545454545504,0.013673887765063,-4.327930933436709e-05,0.185415488976823
1.2311651583710406,89.9592890489859,0.8207116544225709,0.3071034094065541,2.7243364637740564e-08,0.5365632193387271,-0.1840026315893104,4.2690366218598745,33.09918918918925,0.018942070776146,-0.0004369954369954,0.0950226244343891
-1.3780825791855174,75.34300022659549,0.7420548500380044,0.1243420831910954,1.9991929093015515e-08,0.4928098505048141,0.2789156277415646,6.50236793220733,33.04963636363643,0.0134790930857092,-0.000316660279963,0.1402714932126696
0.1651498021481066,62.4882369872764,1.9440734555572443,0.9596339351056647,2.1454436601401242e-08,-0.6029474438963847,-0.2244538524234421,5.442664814191109,33.005585585585564,0.0185843431480011,-0.0002705335205335,0.1763708309779536
-0.2729581447963804,67.91146494643003,1.6044641649939453,0.8496750731326904,3.2047366253813475e-08,-0.1987050440360518,0.039232175336137,5.949806352186919,33.01018181818182,0.0178367250449897,-3.6066091111959086e-05,0.0678733031674208
0.3605200678349377,66.23971263674619,1.067809204936152,0.1491998824058391,1.5344750432782e-08,0.2782880971685498,0.3144592499735436,6.809253130671401,32.98828828828821,0.0123663211535144,-0.000318445068445,0.1266252119841718
-0.010288461538462,89.01454808252045,2.041065533785617,0.7855869230638322,1.8159137302677977e-08,-0.6223805175539661,-0.1105448857247182,4.805036860291562,32.95799999999993,0.0159999999999994,-0.000196199535649,0.1628959276018099
0.0729960429621249,51.4635806064998,2.165028920771688,1.525780730194297,1.2453843224342964e-08,-0.868095952286211,-0.017513921645173,6.883162825957191,32.96369369369363,0.0131469811509572,-1.4391014390998682e-05,0.1899378179762576
-0.164864253393665,9.902553751232688,1.0105188380779435,0.0749697917953935,1.6986339387591556e-08,0.3608984706164907,0.0331255041348651,3.1131744220180098,32.93436363636359,0.0183663364351644,-0.0004553344002885,0.1402714932126696
0.5858201357466061,25.836499299379422,3.26897558654253,2.6914935278370065,1.7347247648304482e-08,-1.6545121835636112,0.1010110063586875,4.320045527071443,32.88981981981979,0.0212230531628477,-0.0004928044928044,0.1085972850678733
-1.3880949689089894,37.07405972676996,1.9900004977571684,1.3678830558383288,2.4943448385116133e-08,-0.3831056323333987,-0.2506539133895449,5.237406786269135,32.83436363636363,0.0105767560525451,-3.7508734756448325e-05,0.0814019219898247
0.6107692307692332,41.56969533473588,0.5769685775250535,0.0711595127281295,2.4022642243356852e-08,0.9651135461633312,0.1416718966587557,3.6365703698533136,32.82135135135132,0.0142365148133132,-0.0002844857844857,0.1131221719457013
0.136195590729225,31.34980364949181,0.1172634680582619,0.0371237713362663,3.724769515587238e-08,1.4933305143028333,0.1774847812572708,3.5126340331614334,32.75927272727272,0.0186210580164749,-0.0004676870364943,0.07687959299039
0.2641628959276019,37.58164285865328,0.3042944407872525,0.0551594310845107,6.21531244366509e-08,1.2865366111793866,0.7222242108336995,5.378691588136287,32.71666666666668,0.0150275023149487,-0.0002992277992277,0.0769230769230769
-0.5002375565610857,30.695383710996147,0.1975943800384905,0.0400443680344859,3.988035375604744e-08,1.5400457153520295,-0.5473358088029773,3.386977232469038,32.6790909090909,0.022904761495672,-0.000476433063589,0.0995475113122172
0.4235443753533071,29.023470238586025,0.3044143181418862,0.1380427247421028,4.924394345855393e-08,1.4358214817557888,0.2817913043980958,5.151606969225601,32.63756756756764,0.0138340366400741,-0.0003044928044927,0.0994912379875635
0.102511312217194,44.12235847303185,0.3728175437524952,0.2392599578495004,4.3406878872533364e-08,1.4496266287016766,0.4880498793319531,5.866457679015265,32.61450450450456,0.0136056916242545,-0.0001549666549666,0.0950226244343891
-0.2588694177501413,27.630098673495286,0.2755683792270914,0.0982912682634239,5.989383637557492e-08,1.5687125395761974,-0.6159116597957384,3.1883673827536865,32.60781818181823,0.0124595212356446,9.882108964677394e-05,0.1040135669869982
0.1162160633484158,22.43787151327145,0.2187594503265646,0.1043911674275274,4.9425775109898e-08,1.5716967742952457,0.245276100416252,3.036593558713732,32.58513513513519,0.0147571857509506,-0.0002523692523692,0.1131221719457013
0.348750706613906,32.58857605136242,0.2173859601767683,0.0565321618244693,5.6895370426155894e-08,1.575791580279643,-0.1844619633425268,1.9457983118064268,32.5663636363637,0.012115149999243,4.904988391226768e-05,0.1130582249858677
-0.0476809954751131,5.8949398833705535,0.0401997859040646,0.0020874516243584,5.587887801072904e-08,-0.5929551804150561,0.2091287919483146,2.4518119830815053,33.40783783783779,0.0135171166367644,-0.0001561951561951,0.1221719457013574
0.0340135669869983,6.184557680605298,0.0570917873514612,0.0030356293256649,5.574800307101149e-08,-0.6242555237269065,0.1092130411411476,2.2747857561127987,33.40709090909087,0.0139704528816712,-0.0001817730992042,0.1130582249858677
0.0817929864253393,6.290937019541856,0.0865701077203894,0.006598567292379,3.3830966993997845e-08,-0.6390718758700134,0.0802882250281109,2.985915254388092,33.39432432432429,0.0135315195355082,-0.0002618462618462,0.1221719457013574
-0.0531391402714934,5.632044310986153,0.0434301514900287,0.007337926341646,5.3655384121412184e-08,-0.5940705991399546,0.1099434328873048,2.648753549365485,33.37681818181817,0.0172116143758065,-0.0002943443860875,0.1266968325791855
-0.0588750706613906,7.101645008096608,0.0154992465918735,0.0006481259456757,5.089439779595393e-08,-0.6243968176155258,-0.0396584148010563,1.9972581005062773,33.34576576576576,0.0212046888215119,-0.0001769041769041,0.1175805539853024
0.0460237556561083,6.80523232233655,0.0206677486748161,0.0008484496666777,4.5268973531373104e-08,-0.6947202219059284,0.1242568901881672,2.196494079300283,33.25872727272727,0.0309283362544946,-0.0009254558979329,0.1221719457013574
0.0246693046919164,7.254535472692791,0.0056498968507171,6.496909674008206e-05,4.912412027666628e-08,-0.7510831152901167,0.0760720294111826,2.2931369705870868,33.16243243243248,0.0214860615290289,-0.0005373815373815,0.1221028829847371
0.0179638009049773,7.155549948259603,0.0072655909272663,5.0765005180596647e-05,4.8223261619557466e-08,-0.7833613802454157,-0.0131690086764715,1.987047525451216,33.13781818181824,0.011312247440218,-5.1394179834639386e-06,0.1266968325791855
-0.0739683436970038,6.867705598098415,0.0076501646415054,5.253935392979271e-05,4.698009994065349e-08,-0.8298346099883439,0.0005367635238406,1.962939347564128,33.13306306306314,0.0114524314105005,-0.0001628641628641,0.1175805539853024
0.0116459276018099,7.172588283656732,0.0062449536739376,0.0001331339707987,4.2679588507264656e-08,-0.8558671882575214,0.1059356932432498,2.3123526338245592,33.10418181818186,0.0130301620852127,-0.0001558055136036,0.1266968325791855
-0.0282126696832578,6.643486763408661,0.005205129199453,6.126104955053473e-05,4.7021616592352275e-08,-0.8845357189849995,0.1099593635799288,2.321951435712512,33.10099099099104,0.0143918742686231,-0.0001435591435591,0.1176470588235294
0.0659129451667608,8.29111826853223,0.0155405058964766,0.0003614508744496,6.478595180400747e-08,-0.8735260076332421,0.0430150951892191,3.4546602139150866,33.10236363636367,0.0126438826550633,0.0002273967044609,0.1221028829847371
0.0590441176470589,8.539519140554683,0.0027777004549821,6.937164975610996e-05,5.63517147814057e-08,-0.883035238710859,0.0636614066013868,1.842110344562201,33.095585585585624,0.0149885652923134,-0.0002428922428922,0.1131221719457013
-0.7690672696438667,38.72994687063272,0.0090965315980373,0.0009779718442311,6.330291989623515e-08,0.9543094264869322,0.0947765588797357,0.6969388555818071,33.40509090909086,0.016222624748141,0.0004301783017379,0.1266252119841718
0.7916911764705877,36.30273613402155,0.0044513062218113,0.0008639175428117,8.29440313126305e-08,0.7055790918740408,0.0694045740464896,0.2352295339344902,33.430360360360304,0.0202652646472119,0.0004234819234819,0.1357466063348416
-0.4457263990955344,38.41179853434436,0.0060786433088795,0.0009431676075017,6.648870074010588e-08,0.5451698838857539,0.085817020180171,0.2461023050510506,33.45799999999993,0.0135378257956253,0.0001637400536483,0.1356698699830412
0.2322794117647053,67.14685305743642,0.0995757892025388,0.0110159691911072,2.819506902633655e-08,0.45141923508047,0.050785822193631,0.9855506020373876,33.48810810810812,0.0173731445189068,0.0003796068796068,0.1312217194570135
-0.6620475113122173,40.106732532708726,0.0068471586944615,0.0014476965619256,6.058574318119634e-08,0.425587012802422,0.0532233694102374,1.678731371367113,33.5182727272728,0.0172077726047425,0.0003145413971102,0.1266968325791855
0.4752232899943478,37.05420688685725,0.0132898953577299,0.0025621506031126,7.302049778152277e-08,0.3263442871201766,0.1088906537536109,0.5620836024004667,33.56657657657663,0.0200672515925434,0.0004089154089154,0.1356698699830412
-0.0835294117647058,48.94405618852802,0.0134985966516138,0.00143394556307,5.2369050632917524e-08,0.2033875060886118,0.0160172318194376,1.0629453489300498,33.59945454545459,0.013673887765063,8.872258413540156e-05,0.1357466063348416
0.2915206331260606,34.594412727754694,0.0021553544180386,0.0002075963598869,7.969315485990496e-08,0.1171848930605303,0.1200965784313686,0.3486350901976085,33.625855855855924,0.0142353745694439,0.0002539487539487,0.1447145279819106
0.0982579185520371,35.200496593467115,0.0020712399543126,0.0001157538752371,7.975199826764513e-08,0.0269671563511763,0.072998813680034,0.5004907300566206,33.6466363636364,0.0116990499013811,0.0001688343890178,0.1447963800904977
-0.2489711701526273,37.00266065118991,0.0016324302712862,0.0001178171375103,7.396150300772308e-08,-0.0430991855023825,0.0669081570283418,0.6114422330531579,33.667567567567524,0.0107566209416944,0.0001602316602316,0.1447145279819106
-0.3340384615384611,51.50270687085938,0.0039964494626552,5.395707840385019e-05,6.32815407546189e-08,-0.0714249507991399,0.0595102240166315,1.4799459629597786,33.684727272727244,0.0151182665498093,0.0002066587020715,0.1357466063348416
0.1382183257918553,48.37831208093921,0.0098322056759985,0.0018682988239605,4.268382057955634e-08,-0.1425324405180672,0.117233695248281,1.1450417019183243,33.72027027027029,0.0186701795018051,0.0003048438048437,0.1493212669683258
0.5058733747880154,33.33576506701963,0.0041876040803314,0.0005405588180312,8.851475346914206e-08,-0.2153524029676064,-0.0096506456339915,0.6872565873510035,33.71900000000001,0.0166214538254836,-2.9303699028468007e-06,0.1447145279819106
-0.2976583710407238,35.13053338088356,0.0052092485657276,0.0005531019347408,7.571007873314349e-08,-0.2767224598969621,0.0952200344046053,1.0728251911216669,33.712072072072104,0.0136307229235356,0.0001353106353106,0.1402714932126696
-0.3759129451667609,32.0809173704188,0.0059323541268824,0.0007742232038199,5.0281471775395394e-08,-0.3297060094305731,0.4958199217134345,3.0090719640897574,33.720990990991005,0.0163825305195845,-5.422955422955752e-05,0.1401921989824759
0.3640214932126685,65.34727331062112,0.0192387254775983,0.0036135408017815,4.0966372043429196e-08,-0.4098386460085957,-0.3748056228128071,1.957334772437792,33.73454545454546,0.0146868131103673,0.0001540923742758,0.1447963800904977
0.15464669304692,43.04138744033763,0.0105102695707772,0.000629304039631,7.071910466790413e-08,-0.4359188849649931,0.0935838999317789,1.5569792142450942,33.757207207207195,0.0110013243405233,0.0001425061425061,0.1492368569813454
0.1886481900452482,35.47498428142899,0.004164385488388,0.000317320085394,5.1951394916291794e-08,-0.4124522813394666,0.1140579098987549,1.528216158269056,33.77363636363635,0.012115149999241,-1.226247097807435e-05,0.1538461538461538
-0.4429864253393659,81.40711429073389,0.0227304363527602,0.0024065679657259,4.063527305190378e-08,-0.4728453555355833,0.0349891140771209,1.3746080015395867,33.78027027027024,0.0125532709537647,-2.281502281492849e-06,0.0678733031674208
-0.0538270209157712,41.15481893588646,0.0084399923508321,0.0013589140390379,3.793671378127148e-08,-0.46910222056664,0.0990387794427964,1.827763737909961,33.78509090909088,0.0127025734361506,-0.0002309131483443,0.1356698699830412
0.4002205882352942,30.97062845919056,0.001418131109437,2.312760721964953e-05,6.920101567120095e-08,-0.4832329987016898,0.0907716907390189,1.2759025295760404,33.785495495495475,0.0112896938362659,0.0001353106353106,0.1402714932126696
-0.1856698699830419,30.90023972303979,0.0019231096785861,8.692546581205939e-05,7.910632447243815e-08,-0.5263070668357063,0.0869857482768148,1.476323292344846,33.79727272727269,0.0110296370095306,-1.298379280030116e-05,0.1401921989824759
1.52389705882353,51.90861925072319,0.0167768833941269,0.0001040305079852,4.0786876323499684e-08,-0.5683426903455416,0.0353433880867351,1.5027571855738189,33.78927927927925,0.0100190549725818,-9.161109161108248e-05,0.1447963800904977
-1.1121266968325878,176.46958927444078,0.0770973923478691,0.0035851282785934,2.39074239529596e-08,-0.5918587497599604,0.0994742563796159,1.5799826335386833,33.776727272727264,0.0121437668941781,-0.0001310100759641,0.1266968325791855
-0.2318428490672696,65.31376053570217,0.0379164378302233,0.001611470481028,2.999875755787632e-08,-0.5874232192484625,0.0464928407800221,1.626002856329679,33.757747747747736,0.0134689957412849,-0.0001470691470691,0.1492368569813454
-0.3764140271493219,57.98830685621285,0.0243776203436874,0.0009481948856457,5.330906726494832e-08,-0.5884749033974964,0.0169411056624266,1.7153764280716677,33.75327272727272,0.0146541394033542,-0.0003808579221423,0.1538461538461538
0.1289146410401367,93.28350043330252,0.018402130192263,0.0029290146567316,3.015797413878138e-08,-0.5578093215726078,0.0339453228502901,1.8644584260451464,33.71648648648649,0.0209094421814618,-0.0003446823446823,0.1537591859807801
0.536685520361992,79.92065701028366,0.0058989120378841,5.290010499201946e-05,5.388024707703669e-08,-0.5540818622807572,0.1787592935507897,2.598543002167694,33.676272727272675,0.0181838635213212,-0.0002909181074318,0.0950226244343891
-0.5472357263990952,83.40816392927248,0.01210585653209,0.0004777270477327,3.7498590548113504e-08,-0.623901470949974,0.0122262013758514,2.369201967648684,33.66648648648647,0.0135997250004433,-1.0530010530006875e-05,0.1537591859807801
-0.1957692307692306,22.06072250288872,0.0038791816296405,0.0001301772935623,4.6906638491830457e-08,-0.6578098957592686,0.1072244305926707,1.841759635979077,33.66072727272728,0.0095068483362923,-0.000108558934247,0.1538461538461538
-0.2530486425339375,31.069350023746672,0.0069669635366874,1.6587861241831495e-05,4.0601716126658766e-08,-0.6916728844300295,0.1485631611726464,2.0002269773371726,33.65072072072076,0.0096526812511548,-3.194103194103094e-05,0.1583710407239819
0.475686828716791,27.692145029235988,0.0056169686159065,0.0002143399153045,5.601870376582112e-08,-0.6594990579930665,-0.0785058030766086,2.0568284496553457,33.64472727272733,0.011013140160658,-9.782927214117928e-05,0.1492368569813454
0.0043947963800905,27.11587277631053,0.0023925940391399,3.9014169856040463e-05,6.677780963814713e-08,-0.6630231123761227,0.1186772178717349,1.3950924699677945,33.6415315315316,0.0130279116991153,-0.0001291681291681,0.1447963800904977
0.005076314301865,38.00871715056575,0.0031701507916227,3.915691965675439e-05,5.699039430967989e-08,-0.6691344357377685,0.1527290237737582,1.5964879616580046,33.62927927927936,0.0122813644597847,-0.0001702351702351,0.1401921989824759
-0.0356052036199094,34.172118908837064,0.0081931585581289,2.698822109555679e-05,4.7194381871041214e-08,-0.6742631200009243,0.0708111315401716,1.6954663976359834,33.627454545454604,0.0125362284915914,8.65586186686932e-06,0.1402714932126696
-0.9207179197286596,45.56316004515389,0.0116744645830659,0.0017535485850804,5.049746094390977e-08,-0.7067253092991355,0.0085120881038914,1.5789319071110195,33.612702702702734,0.0115427872994936,-0.0001038961038961,0.0904465799886941
1.1431843891402709,39.35122055185519,0.0064897161348133,0.0001184967235052,3.960333166093005e-08,-0.7108719123730703,0.0320283102651451,1.5813015168344011,33.59763636363641,0.0123529365465172,-5.6984423956892245e-05,0.1493212669683258
-0.2659502262443441,22.88265271199551,0.013606357025308,0.0005184645660948,5.230708438796123e-08,-0.7613848804208702,0.2017705262905993,1.534838761072121,33.59108108108113,0.0158456150385012,2.053352053353852e-05,0.1402714932126696
0.0973600904465802,17.642177364015208,0.0035288408106391,0.0003258183262192,4.9355827150055026e-08,-0.7659790944028702,-0.1086005121184433,1.633753853263545,33.567818181818254,0.0133063087007518,-0.0002468723936614,0.1492368569813454
0.6922171945701361,37.61541381848178,0.0102139590828753,0.0001189765319889,4.623146664604457e-08,-0.7647507130431894,0.0883387094420866,1.5395636108230817,33.55684684684692,0.0148252269770987,-0.0001377676377676,0.1447963800904977
-0.7673205200678321,51.97518394727872,0.0099727312788988,0.0013752414620636,5.8774994556076435e-08,-0.7817346660414497,0.1478644587447407,1.3509557502440117,33.558363636363694,0.0151073295111577,0.0001781664900931,0.0904465799886941
-0.5176131221719429,121.80285097397687,0.0239557528590351,0.0003583353841826,3.5341355115535733e-08,-0.7948731675874663,0.0145185291412752,1.5569161693089162,33.57162162162168,0.011743546476975,-6.528606528607548e-05,0.0633484162895927
5.829717354437532,152.70960230778908,0.3197195638306643,0.1659509759400425,2.4520972254034448e-08,0.2515179245067459,0.4126918235144899,4.664254733943952,32.70018181818183,0.018536539746812,0.0001608547663593,0.1221028829847371
-1.299117647058819,120.76779683129074,0.3804454430116515,0.1207512256169535,3.370682367855483e-08,0.5456614355658375,0.3903299688719756,4.636545711117228,32.717927927927946,0.0152526540072552,0.0001646191646191,0.167420814479638
-0.1966139061616764,141.79324181946754,0.5639238201837846,0.2868949729888289,2.9241712653044087e-08,0.8074326723278165,-0.3705819521797929,5.008981895524531,32.73363636363637,0.0208338567427366,0.000440366972477,0.045223289994347
-3.7387047511312215,183.44740454977432,0.3665603158669759,0.1506540424078727,4.2059732733712216e-08,1.2372888998542746,-0.3885394296891156,5.4610963418347005,32.7391891891892,0.0113212814936269,-2.0709020709023944e-05,0.085972850678733
2.684841628959276,148.37034217636446,0.7388100113510552,0.0791579518549506,2.3487941568691538e-08,1.113658650896575,0.5281642629422048,5.155939743718403,32.74345454545455,0.014297893273701,0.0001615760881816,0.1131221719457013
0.8283154324477098,136.93937538238845,0.7608576078917293,0.3511605163298557,3.5059680336531684e-08,0.9172057809080292,-0.3479743888885747,6.221036101567752,32.71432432432432,0.0197105917299615,-0.0003932958932958,0.0904465799886941
0.196097285067874,178.90002416266552,0.4874986035439705,0.2734084395236515,3.3906276948291284e-08,1.1793284028436244,0.332876455326532,5.851245295941597,32.67381818181816,0.0186343679641015,-0.000352726371075,0.0995475113122172
-1.6505709440361804,127.7373793343612,0.7636154047789441,0.128481516965104,4.338992694825091e-08,0.7961614428054111,0.0409492821644607,4.964463530954569,32.65684684684687,0.010652748406687,-0.0001296068796068,0.1356698699830412
